Time,Temperature,Weight,Deriv. Weight
39.65,42.899400000000014,97.42376000000002,-1.5350660799999998
39.650625,42.90207638888889,97.42376000000002,-1.492515494
39.65125,42.904752777777766,97.42054,-1.4678171279999996
39.651875,42.90742916666664,97.41631999999998,-1.3894404824000002
39.652499999999996,42.91010555555552,97.41631999999998,-1.238903494
39.653124999999996,42.9127819444444,97.41532000000004,-1.0849734199999999
39.653749999999995,42.91545833333327,97.41532000000004,-0.92503398
39.654374999999995,42.91813472222215,97.41532000000004,-0.8275885799999999
39.654999999999994,42.92081111111102,97.41110000000002,-0.7866863799999998
39.65562499999999,42.9234874999999,97.41110000000002,-0.7751144200000001
39.65624999999999,42.92616388888877,97.40687999999999,-0.7804921800000001
39.65687499999999,42.92884027777765,97.40687999999999,-0.7377567399999998
39.65749999999999,42.93151666666653,97.40687999999999,-0.66927632
39.65812499999999,42.934193055555404,97.40588,-0.5672279800000001
39.65874999999999,42.936869444444284,97.40588,-0.5110885
39.65937499999999,42.939545833333156,97.40165999999998,-0.55838544
39.66004166666666,42.94208805555537,97.40165999999998,-0.65420508
39.660708333333325,42.94463027777757,97.40165999999998,-0.7726719599999999
39.66137499999999,42.94717249999977,97.39743999999996,-0.8368243200000001
39.66204166666666,42.94971472222198,97.40065999999997,-0.7955019999999999
39.66270833333333,42.95225694444419,97.39644000000001,-0.6954011
39.663374999999995,42.95479916666639,97.39644000000001,-0.59297914
39.66404166666666,42.957341388888594,97.39644000000001,-0.5742609000000001
39.66470833333333,42.959883611110804,97.39222,-0.6811328799999999
39.665375,42.96242583333301,97.39222,-0.81941034
39.666041666666665,42.96496805555521,97.39121999999999,-0.9202065
39.66670833333333,42.967510277777414,97.39121999999999,-0.9136603799999999
39.667375,42.969583611110735,97.39121999999999,-0.8299097000000001
39.66804166666667,42.97165694444406,97.38700000000003,-0.74727156
39.668708333333335,42.97373027777738,97.38700000000003,-0.7247783799999998
39.669375,42.9758036111107,97.38700000000003,-0.8016681600000001
39.67014423076923,42.97754668803377,97.38278000000001,-0.9363832999999999
39.67091346153846,42.979289764956846,97.38599999999998,-1.0258348199999998
39.67168269230769,42.981032841879916,97.38599999999998,-1.0294452
39.67245192307692,42.982775918802986,97.38177999999996,-0.95842712
39.67322115384615,42.984518995726056,97.38177999999996,-0.85690694
39.67399038461538,42.986262072649126,97.37756,-0.8315336599999998
39.67475961538461,42.988474038461085,97.37756,-0.85202712
39.67552884615384,42.99068600427304,97.37756,-0.9591006400000001
39.67629807692307,42.992897970085,97.37756,-1.0609803599999998
39.6770673076923,42.99510993589695,97.37333999999998,-1.0594327399999999
39.67783653846153,42.99732190170891,97.37333999999998,-0.9766711399999998
39.67860576923076,42.99953386752086,97.36911999999997,-0.8141047
39.679374999999986,43.00174583333282,97.37233999999998,-0.6920007400000001
39.68020833333332,43.00375138888836,97.37233999999998,-0.67158872
39.68104166666665,43.0057569444439,97.37233999999998,-0.7386202000000001
39.681874999999984,43.007762499999444,97.36812000000002,-0.83141884
39.682708333333316,43.00976805555499,97.36812000000002,-0.8660754799999999
39.68354166666665,43.011773611110534,97.36812000000002,-0.7850662199999998
39.68437499999998,43.013779166666076,97.3639,-0.6382835999999998
39.685208333333314,43.015784722221625,97.3639,-0.5024280999999999
39.68604166666665,43.017790277777166,97.36712000000001,-0.4662085600000001
39.68687499999998,43.01979583333271,97.3629,-0.5468294800000001
39.68770833333331,43.02180138888826,97.3629,-0.66013128
39.688541666666644,43.0238069444438,97.3629,-0.73409086
39.68937499999998,43.02581249999934,97.3629,-0.7062908799999998
39.690486111111085,43.02692361111045,97.35868000000004,-0.60164244
39.69159722222219,43.028034722221555,97.3619,-0.5296938
39.6927083333333,43.02914583333266,97.3619,-0.55250808
39.69381944444441,43.03025694444377,97.35767999999997,-0.6319664999999999
39.694930555555516,43.03136805555488,97.35767999999997,-0.75922138
39.69604166666662,43.032479166665986,97.35767999999997,-0.8216684479999997
39.69715277777773,43.033590277777094,97.35767999999997,-0.7884959599999999
39.69826388888884,43.0347013888882,97.35345999999996,-0.7405389119999999
39.69937499999995,43.03581249999934,97.35345999999996,-0.6948327639999999
39.70048611111106,43.036923611110424,97.35345999999996,-0.73397682
39.70159722222217,43.03803472222153,97.35345999999996,-0.880672458
39.70270833333328,43.03914583333264,97.34924,-1.0553231111999999
39.703819444444385,43.04025694444375,97.34924,-1.1646571899999998
39.70493055555549,43.041368055554855,97.34924,-1.2043420139999998
39.7060416666666,43.04247916666596,97.34501999999998,-1.1457381519999998
39.70715277777771,43.04359027777707,97.34501999999998,-1.0821768619999999
39.708263888888816,43.04470138888818,97.34501999999998,-1.08220641
39.70937499999992,43.046398611110405,97.34501999999998,-1.117487964
39.71080357142849,43.04707361111041,97.34079999999996,-1.2078886779999998
39.71223214285706,43.047748611110414,97.34079999999996,-1.30904644
39.71366071428563,43.048423611110415,97.34079999999996,-1.34591982
39.7150892857142,43.049098611110416,97.33658,-1.3137712799999999
39.71651785714277,43.049773611110425,97.33336000000003,-1.2198387199999998
39.71794642857134,43.050448611110426,97.33336000000003,-1.1376291399999998
39.71937499999991,43.05112361111043,97.33336000000003,-1.1624286599999998
39.72104166666657,43.051785515872325,97.33336000000003,-1.2425104599999999
39.72270833333324,43.05244742063422,97.32914000000001,-1.3383431799999999
39.7243749999999,43.05310932539613,97.32592,-1.38268426
39.72604166666657,43.05377123015803,97.32592,-1.3533595200000001
39.72770833333323,43.054433134919925,97.32592,-1.2930365999999998
39.7293749999999,43.055095039681824,97.31847999999997,-1.2326751
39.7313749999999,43.05468361111038,97.31847999999997,-1.2028432199999999
39.7333749999999,43.05427218253893,97.31847999999997,-1.21249452
39.735374999999905,43.053860753967484,97.31526,-1.2357223999999998
39.73737499999991,43.05344932539604,97.31104000000003,-1.2346139
39.73937499999991,43.05303789682459,97.31104000000003,-1.2160255800000002
39.74137499999991,43.05262646825315,97.30782,-1.1743475
39.743374999999915,43.052215039681705,97.30782,-1.13365932
39.74537499999992,43.05180361111026,97.30782,-1.11780234
39.74737499999992,43.05239694444357,97.3046,-1.1100580859999998
39.74937499999992,43.05299027777689,97.30037999999998,-1.1242903059999998
39.751374999999925,43.05358361111021,97.29716,-1.1354733499999998
39.75337499999993,43.05417694444353,97.29716,-1.1277642359999998
39.75537499999993,43.05477027777685,97.29393999999999,-1.1055184899999997
39.75737499999993,43.055363611110174,97.29393999999999,-1.05848135
39.759374999999935,43.05595694444349,97.29071999999998,-1.020111802
39.76187499999993,43.05494027777682,97.29071999999998,-1.0062730399999997
39.76437499999993,43.05392361111016,97.28327999999999,-1.020166318
39.76687499999993,43.05290694444349,97.28005999999998,-1.0472593579999998
39.769374999999926,43.05189027777683,97.28005999999998,-1.047167994
39.77187499999992,43.05087361111016,97.27683999999995,-1.010764464
39.77437499999992,43.05126361111018,97.27683999999995,-0.9516141419999998
39.77687499999992,43.0516536111102,97.27362,-0.9112395599999998
39.779374999999916,43.052043611110214,97.27039999999997,-0.895928324
39.78270833333325,43.0497502777769,97.27039999999997,-0.8997375499999998
39.78604166666658,43.04745694444359,97.26717999999995,-0.9105535379999999
39.78937499999991,43.047273611110256,97.26395999999998,-0.9058315259999998
39.79270833333324,43.047090277776924,97.26395999999998,-0.8942731819999997
39.79604166666657,43.046906944443585,97.26073999999997,-0.8689693639999998
39.7993749999999,43.04672361111025,97.2533,-0.843770036
39.801874999999896,43.04711361111027,97.25008000000003,-0.8222899019999999
39.804374999999894,43.04750361111029,97.25008000000003,-0.8123498015999999
39.80687499999989,43.04789361111031,97.24686000000001,-0.8165290169999999
39.80937499999989,43.04828361111033,97.24364,-0.8163242060000001
39.81270833333323,43.04599027777699,97.24042000000003,-0.8223836948000001
39.81604166666656,43.045806944443655,97.24042000000003,-0.8048983869999999
39.81937499999989,43.04562361111032,97.23720000000002,-0.7806129359999999
39.82437499999989,43.0400736111103,97.23398,-0.7572800352
39.82937499999989,43.03452361111029,97.23076000000003,-0.7329438199999998
39.83270833333322,43.034340277776984,97.22754,-0.7291609539999999
39.83604166666655,43.03415694444365,97.22431999999999,-0.7270778899999999
39.83937499999988,43.03397361111032,97.22110000000002,-0.7310745801999999
39.84270833333322,43.03379027777696,97.22531999999998,-0.7270336318
39.84604166666655,43.03712361111029,97.22209999999997,-0.6992720480000001
39.84937499999988,43.04045694444362,97.21887999999996,-0.66384292
39.85437499999988,43.03842361111029,97.21565999999999,-0.63360171
39.85937499999988,43.032873611110276,97.21243999999997,-0.62637578
39.86270833333321,43.032690277776936,97.20921999999996,-0.642959866
39.86604166666654,43.032506944443604,97.20599999999999,-0.6627589079999999
39.86937499999987,43.03232361111027,97.20277999999998,-0.662130198
39.87437499999987,43.03029027777692,97.19955999999995,-0.641436696
39.879374999999875,43.02825694444356,97.19633999999998,-0.6132630839999998
39.88437499999988,43.02622361111021,97.19311999999996,-0.5808389319999999
39.88937499999988,43.02419027777689,97.18989999999995,-0.571369898
39.89437499999988,43.02215694444353,97.18667999999998,-0.5793148379999999
39.899374999999885,43.02012361111018,97.18345999999997,-0.591860648
39.902708333333216,43.02345694444351,97.18023999999996,-0.5971982379999999
39.906041666666546,43.02679027777684,97.18124,-0.578236812
39.909374999999876,43.03012361111017,97.17801999999999,-0.5521354759999999
39.91437499999988,43.02809027777681,97.17479999999998,-0.53226796
39.91937499999988,43.02605694444346,97.17158,-0.5207266899999999
39.924374999999884,43.0240236111101,97.16835999999999,-0.511780948
39.92937499999989,43.02199027777675,97.16513999999998,-0.514686184
39.93437499999989,43.01995694444339,97.16192000000001,-0.5195354759999998
39.93937499999989,43.01792361111004,97.15869999999998,-0.519013436
39.94937499999989,43.00682361111006,97.15969999999999,-0.505193624
39.95437499999989,43.01182361111006,97.15648000000002,-0.4850182679999999
39.959374999999895,43.00979027777671,97.15326,-0.4717983659999999
39.96437499999989,43.00775694444337,97.15003999999999,-0.47145243400000003
39.96937499999989,43.00572361111002,97.14682000000002,-0.48448403799999995
39.974374999999895,43.01072361111002,97.14038,-0.495361128
39.9793749999999,43.015723611110026,97.13716000000002,-0.49609315000000004
39.9843749999999,43.0136902777767,97.13815999999997,-0.481137284
39.9893749999999,43.011656944443345,97.13493999999996,-0.448734548
39.99937499999991,42.993523611109985,97.13171999999999,-0.41701555199999996
40.00437499999991,42.99852361110996,97.12849999999996,-0.40871961999999995
40.00937499999991,43.00352361110996,97.12528,-0.42252161200000005
40.014374999999916,43.008523611109965,97.12205999999998,-0.4511737979999999
40.01937499999992,43.01352361110997,97.11984000000001,-0.46571242599999996
40.02937499999992,43.00242361110996,97.11662,-0.454188928
40.034374999999926,43.007423611109964,97.11339999999998,-0.4239997679999999
40.03937499999993,43.012423611109966,97.11018000000001,-0.395530024
40.04937499999993,43.00132361110998,97.10696,-0.38450441199999996
40.05437499999992,43.006323611110005,97.10796,-0.39337867000000015
40.059374999999925,43.01132361111001,97.10152000000002,-0.41012729600000003
40.06937499999993,43.00022361111,97.09830000000001,-0.4162848539999999
40.07437499999993,43.005223611110004,97.09508000000004,-0.404658556
40.079374999999935,43.01022361111001,97.09186000000003,-0.3808060719999999
40.08937499999993,42.99912361111003,97.09285999999996,-0.360616018
40.094374999999935,43.00412361111003,97.08964,-0.346821328
40.09937499999994,43.009123611110034,97.08319999999996,-0.349368848
40.109374999999936,42.99802361111005,97.07997999999999,-0.3588413639999999
40.119374999999934,42.986923611110065,97.07675999999998,-0.367770398
40.12437499999993,42.99192361111009,97.07775999999998,-0.37016316400000004
40.12937499999993,42.99692361111009,97.07454000000001,-0.356668326
40.13937499999994,42.98582361111009,97.06809999999999,-0.34006166799999993
40.149374999999935,42.97472361111011,97.06488000000002,-0.328391836
40.15437499999993,43.000823611110114,97.06588000000002,-0.325316064
40.15937499999993,43.00582361111009,97.06266000000001,-0.33390402799999996
40.16937499999993,42.9947236111101,97.05944000000004,-0.33971787999999997
40.179374999999936,42.9836236111101,97.053,-0.33656120999999994
40.189374999999934,42.97252361111011,97.04978000000003,-0.32055325999999995
40.19437499999994,42.9986236111101,97.05077999999997,-0.29922355999999994
40.19937499999994,43.00362361111007,97.04755999999996,-0.285423524
40.209374999999945,42.992523611110066,97.04433999999999,-0.284724344
40.21937499999994,42.98142361111008,97.03789999999996,-0.298110852
40.22937499999994,42.970323611110096,97.03890000000001,-0.3103116819999999
40.23937499999994,42.98032361111012,97.03568,-0.31699415999999997
40.249374999999944,42.969223611110124,97.03245999999999,-0.30732767400000005
40.25437499999994,42.97422361111015,97.02924000000002,-0.286253004
40.25937499999994,43.000323611110126,97.02702000000001,-0.26649724599999997
40.26937499999994,42.98922361111012,97.02380000000004,-0.2587121779999999
40.279374999999945,42.978123611110114,97.02058000000002,-0.2695368319999999
40.28937499999994,42.98812361111014,97.01736,-0.28535289399999997
40.29937499999994,42.977023611110155,97.01513999999997,-0.29233377
40.30937499999994,42.96592361111017,97.01191999999996,-0.28716761199999996
40.319374999999944,42.97592361111015,97.00869999999999,-0.272856746
40.32937499999994,42.985923611110174,97.00547999999998,-0.264267028
40.33937499999994,42.97482361111016,97.00647999999998,-0.26070537
40.349374999999945,42.963723611110154,97.00004,-0.2637149099999999
40.35937499999994,42.97372361111015,96.99681999999999,-0.2720790919999999
40.36937499999994,42.98372361111015,96.99360000000001,-0.2750506260000001
40.37937499999994,42.97262361111017,96.99460000000002,-0.272794326
40.389374999999944,42.96152361111017,96.98816000000004,-0.26450370599999995
40.39937499999994,42.971523611110165,96.98494000000002,-0.25070966399999994
40.40937499999994,42.98152361111016,96.98172,-0.24139694399999997
40.41937499999994,42.97042361111018,96.98271999999999,-0.23453693199999998
40.42937499999994,42.95932361111017,96.97627999999996,-0.233857242
40.43937499999994,42.96932361111017,96.97305999999999,-0.24097232799999996
40.44937499999994,42.97932361111017,96.97406,-0.24495253999999994
40.459374999999945,42.989323611110144,96.97083999999998,-0.24632718399999998
40.46937499999994,42.97822361111016,96.96762000000001,-0.236005346
40.47937499999994,42.96712361111018,96.96117999999998,-0.223563988
40.48937499999994,42.97712361111017,96.96218000000003,-0.218781176
40.499374999999944,42.98712361111015,96.95896000000002,-0.22376270200000004
40.50937499999994,42.99712361111018,96.95574,-0.23576796199999997
40.51937499999994,43.007123611110174,96.94930000000002,-0.24051989599999993
40.529374999999945,43.01712361111015,96.95029999999996,-0.23513319599999993
40.53937499999994,43.00602361111014,96.94707999999999,-0.21941820199999995
40.54937499999994,42.99492361111016,96.94385999999997,-0.20549115999999995
40.569374999999944,42.97272361111017,96.94164,-0.20119303600000002
40.57937499999994,42.98272361111017,96.93842,-0.206203698
40.58937499999994,42.992723611110165,96.93519999999998,-0.21730646199999998
40.599374999999945,43.00272361111014,96.93198000000001,-0.22274857599999998
40.60937499999994,43.01272361111017,96.93298000000001,-0.216778552
40.61937499999994,43.022723611110166,96.92654000000003,-0.20353381400000004
40.639374999999944,43.00052361111015,96.92332000000002,-0.19232525999999994
40.64937499999994,43.01052361111017,96.92431999999997,-0.187998738
40.65937499999994,43.02052361111017,96.9211,-0.19255987
40.66937499999994,43.03052361111017,96.91787999999997,-0.19980527599999992
40.67937499999994,43.040523611110146,96.91143999999998,-0.202907196
40.69937499999994,43.01832361111018,96.91243999999999,-0.19938706399999997
40.709374999999945,43.02832361111015,96.90921999999998,-0.19321201800000004
40.71937499999994,43.03832361111015,96.906,-0.185599464
40.72937499999994,43.048323611110185,96.90277999999999,-0.182809528
40.749374999999944,43.026123611110165,96.90056000000003,-0.18439964600000003
40.75937499999994,43.03612361111016,96.89734000000001,-0.18438792799999998
40.76937499999994,43.04612361111016,96.89412,-0.18507694599999996
40.779374999999945,43.056123611110166,96.89511999999999,-0.18191778599999997
40.79937499999994,43.03392361111017,96.89189999999998,-0.17802875199999998
40.80937499999994,43.043923611110166,96.88867999999995,-0.17140977200000002
40.819374999999944,43.05392361111017,96.88223999999997,-0.164577804
40.83937499999994,43.03172361111017,96.88323999999997,-0.15885408199999998
40.849374999999945,43.04172361111015,96.88002,-0.15917614400000002
40.85937499999994,43.05172361111015,96.87679999999999,-0.164779
40.87937499999994,43.029523611110186,96.87357999999998,-0.16975376199999992
40.889374999999944,43.03952361111016,96.87458000000002,-0.170718598
40.89937499999994,43.04952361111016,96.87136000000001,-0.16268074999999999
40.91937499999994,43.02732361111016,96.86492000000003,-0.15501056400000002
40.92937499999994,43.03732361111017,96.86591999999997,-0.14925961
40.94937499999994,43.01512361111017,96.86269999999996,-0.149128466
40.959374999999945,43.06732361111017,96.85947999999999,-0.15414466
40.96937499999994,43.07732361111017,96.85625999999998,-0.15528215599999998
40.98937499999994,43.05512361111017,96.85725999999998,-0.15361935999999995
40.999374999999944,43.065123611110145,96.85404000000001,-0.14926791600000003
41.01937499999994,43.04292361111018,96.85081999999998,-0.141739932
41.029374999999945,43.05292361111015,96.84759999999997,-0.14041763599999996
41.04937499999994,43.072923611110184,96.84860000000003,-0.13997569599999998
41.05937499999994,43.08292361111018,96.84538,-0.14182973599999998
41.07937499999994,43.06072361111016,96.83894000000002,-0.14439978399999998
41.08937499999994,43.07072361111016,96.83572000000001,-0.14453965000000002
41.10937499999994,43.04852361111017,96.83672,-0.14457632399999998
41.11937499999994,43.10072361111016,96.83349999999999,-0.141183932
41.139374999999944,43.07852361111017,96.83027999999997,-0.13878065199999998
41.14937499999994,43.08852361111017,96.82706,-0.13584941399999997
41.16937499999994,43.06632361111017,96.82806000000001,-0.13457492999999998
41.17937499999994,43.11852361111017,96.82484,-0.13570569599999996
41.19937499999994,43.09632361111017,96.82162000000002,-0.13764987399999995
41.209374999999945,43.10632361111015,96.81840000000001,-0.139158072
41.22937499999994,43.08412361111016,96.81940000000002,-0.137016716
41.23937499999994,43.13632361111017,96.81618000000005,-0.133566894
41.25937499999994,43.11412361111016,96.81296000000003,-0.12762099999999998
41.26937499999994,43.124123611110186,96.80974,-0.125205566
41.28937499999994,43.14412361111016,96.81074,-0.128595758
41.30937499999994,43.12192361111016,96.80751999999998,-0.133708646
41.319374999999944,43.13192361111017,96.80429999999997,-0.137999798
41.33937499999994,43.10972361111017,96.80108,-0.136556034
41.35937499999994,43.12972361111017,96.80208,-0.12979293600000003
41.36937499999994,43.13972361111017,96.79885999999999,-0.12342962599999999
41.389374999999944,43.159723611110145,96.79564000000002,-0.12130278999999998
41.39937499999994,43.16972361111017,96.79242,-0.12202363199999999
