Time,Temperature,Weight,Deriv. Weight
39.65,43.176600000000015,97.19264000000001,-1.67588512
39.650625,43.179451388888886,97.19264000000001,-1.6269008660000002
39.65125,43.182302777777764,97.18906,-1.598109192
39.651875,43.18515416666664,97.18447999999998,-1.5083005736000004
39.652499999999996,43.18800555555551,97.18447999999998,-1.3394488660000001
39.653124999999996,43.19085694444439,97.18348000000003,-1.1682273799999998
39.653749999999995,43.19370833333326,97.18348000000003,-0.9910972200000001
39.654374999999995,43.19655972222214,97.18348000000003,-0.88306062
39.654999999999994,43.19941111111102,97.17890000000001,-0.8363588199999998
39.65562499999999,43.20226249999989,97.17890000000001,-0.8210003800000001
39.65624999999999,43.20511388888877,97.17432,-0.8246530200000001
39.65687499999999,43.207965277777646,97.17432,-0.7763008599999999
39.65749999999999,43.21081666666652,97.17432,-0.7013364800000002
39.65812499999999,43.213668055555395,97.17332,-0.5903252200000001
39.65874999999999,43.216519444444266,97.17332,-0.5299795
39.65937499999999,43.219370833333144,97.16873999999999,-0.5826681600000001
39.66004166666666,43.22207305555535,97.16873999999999,-0.68689812
39.660708333333325,43.22477527777755,97.16873999999999,-0.81578844
39.66137499999999,43.22747749999976,97.16415999999995,-0.8856784799999999
39.66204166666666,43.23017972222196,97.16773999999998,-0.841078
39.66270833333333,43.232881944444166,97.16316000000002,-0.7331308999999999
39.663374999999995,43.23558416666637,97.16316000000002,-0.6220984599999999
39.66404166666666,43.23828638888857,97.16316000000002,-0.6018351000000001
39.66470833333333,43.24098861111077,97.15858,-0.7186643199999999
39.665375,43.24369083333298,97.15858,-0.8696112600000001
39.666041666666665,43.24639305555518,97.15758,-0.9803355
39.66670833333333,43.249095277777386,97.15758,-0.97413282
39.667375,43.25128861111071,97.15758,-0.8835623000000001
39.66804166666667,43.253481944444026,97.15300000000003,-0.7942868399999999
39.668708333333335,43.25567527777734,97.15300000000003,-0.7700228199999999
39.669375,43.257868611110666,97.15300000000003,-0.8542562400000001
39.67014423076923,43.25969476495681,97.14842000000002,-1.0019987000000001
39.67091346153846,43.26152091880296,97.15199999999997,-1.0998259799999999
39.67168269230769,43.26334707264911,97.15199999999997,-1.1045988
39.67245192307692,43.26517322649526,97.14741999999995,-1.02785168
39.67322115384615,43.2669993803414,97.14741999999995,-0.91790066
39.67399038461538,43.26882553418755,97.14284,-0.89161874
39.67475961538461,43.27116057692258,97.14284,-0.9139636800000001
39.67552884615384,43.273495619657616,97.14284,-1.0310509600000002
39.67629807692307,43.27583066239265,97.14284,-1.1419940400000002
39.6770673076923,43.27816570512768,97.13825999999997,-1.1400968599999999
39.67783653846153,43.28050074786271,97.13825999999997,-1.05019646
39.67860576923076,43.282835790597744,97.13367999999996,-0.8727973000000001
39.679374999999986,43.28517083333277,97.13725999999997,-0.7395808600000002
39.68020833333332,43.287276388888316,97.13725999999997,-0.7167060800000001
39.68104166666665,43.28938194444386,97.13725999999997,-0.7890058000000001
39.681874999999984,43.291487499999405,97.13268000000002,-0.88942276
39.682708333333316,43.29359305555494,97.13268000000002,-0.9265137199999999
39.68354166666665,43.29569861111049,97.13268000000002,-0.8379865799999999
39.68437499999998,43.29780416666603,97.12809999999999,-0.6779483999999999
39.685208333333314,43.29990972222157,97.12809999999999,-0.5296819
39.68604166666665,43.302015277777116,97.13168000000002,-0.49012984000000015
39.68687499999998,43.30412083333266,97.12709999999998,-0.5777297200000001
39.68770833333331,43.3062263888882,97.12709999999998,-0.7015939200000001
39.688541666666644,43.308331944443744,97.12709999999998,-0.7831635400000001
39.68937499999998,43.31043749999929,97.12709999999998,-0.7539563199999999
39.690486111111085,43.311548611110396,97.12252000000004,-0.6407751600000001
39.69159722222219,43.312659722221504,97.1261,-0.5630082000000001
39.6927083333333,43.31377083333261,97.1261,-0.58865712
39.69381944444441,43.31488194444372,97.12151999999998,-0.6756435000000001
39.694930555555516,43.31599305555483,97.12151999999998,-0.81531982
39.69604166666662,43.317104166665935,97.12151999999998,-0.8839766719999999
39.69715277777773,43.31821527777704,97.12151999999998,-0.84810044
39.69826388888884,43.31932638888815,97.11693999999996,-0.7966663679999999
39.69937499999995,43.32043749999929,97.11693999999996,-0.747625396
39.70048611111106,43.32154861111037,97.11693999999996,-0.7917499800000001
39.70159722222217,43.32265972222148,97.11693999999996,-0.9536620620000001
39.70270833333328,43.32377083333259,97.11236,-1.1460402168
39.703819444444385,43.324881944443696,97.11236,-1.2664794099999999
39.70493055555549,43.325993055554804,97.11236,-1.310455146
39.7060416666666,43.32710416666591,97.10777999999998,-1.246844728
39.70715277777771,43.32821527777702,97.10777999999998,-1.1781194179999999
39.708263888888816,43.32932638888813,97.10777999999998,-1.1797089900000002
39.70937499999992,43.331073611110355,97.10777999999998,-1.219388196
39.71080357142849,43.33168432539607,97.10319999999996,-1.318714642
39.71223214285706,43.33229503968179,97.10319999999996,-1.4296291600000002
39.71366071428563,43.33290575396751,97.10319999999996,-1.4701669800000001
39.7150892857142,43.33351646825322,97.09862,-1.4358559199999998
39.71651785714277,43.33412718253894,97.09504000000003,-1.33413008
39.71794642857134,43.334737896824656,97.09504000000003,-1.24521046
39.71937499999991,43.335348611110376,97.09504000000003,-1.27321974
39.72104166666657,43.335924801586565,97.09504000000003,-1.3613439399999998
39.72270833333324,43.336500992062746,97.09046000000001,-1.4665100199999999
39.7243749999999,43.337077182538934,97.08688,-1.51526614
39.72604166666657,43.337653373015115,97.08688,-1.4838112800000003
39.72770833333323,43.3382295634913,97.08688,-1.4187413999999998
39.7293749999999,43.33880575396749,97.07871999999995,-1.3534569
39.7313749999999,43.338188611110326,97.07871999999995,-1.32103158
39.7333749999999,43.33757146825317,97.07871999999995,-1.3316062800000001
39.735374999999905,43.336954325396,97.07513999999999,-1.3571756000000001
39.73737499999991,43.33633718253884,97.07056000000003,-1.3563461
39.73937499999991,43.335720039681675,97.07056000000003,-1.3364236200000001
39.74137499999991,43.335102896824516,97.06698000000002,-1.2913205
39.743374999999915,43.33448575396735,97.06698000000002,-1.2474754799999999
39.74537499999992,43.33386861111019,97.06698000000002,-1.23091326
39.74737499999992,43.33434194444351,97.0634,-1.223217354
39.74937499999992,43.334815277776826,97.05881999999997,-1.239123934
39.751374999999925,43.335288611110144,97.05524000000001,-1.25153465
39.75337499999993,43.33576194444346,97.05524000000001,-1.2431312039999998
39.75537499999993,43.33623527777678,97.05166,-1.21887511
39.75737499999993,43.3367086111101,97.05166,-1.1678466500000002
39.759374999999935,43.337181944443415,97.04807999999997,-1.126358278
39.76187499999993,43.33586527777675,97.04807999999997,-1.11171056
39.76437499999993,43.33454861111008,97.03991999999998,-1.127164402
39.76687499999993,43.33323194444342,97.03633999999997,-1.156878962
39.769374999999926,43.33191527777675,97.03633999999997,-1.1569077660000002
39.77187499999992,43.330598611110084,97.03275999999995,-1.117476096
39.77437499999992,43.33080861111011,97.03275999999995,-1.0532515379999998
39.77687499999992,43.331018611110125,97.02917999999998,-1.00962684
39.779374999999916,43.33122861111014,97.02559999999997,-0.9931766360000001
39.78270833333325,43.32845527777683,97.02559999999997,-0.99724445
39.78604166666658,43.325681944443524,97.02201999999996,-1.0089839820000002
39.78937499999991,43.32519861111019,97.01843999999998,-1.0037095139999999
39.79270833333324,43.32471527777685,97.01843999999998,-0.991080098
39.79604166666657,43.324231944443525,97.01485999999997,-0.9636011959999999
39.7993749999999,43.32374861111019,97.0067,-0.936255404
39.801874999999896,43.32395861111021,97.00312000000002,-0.9129861779999999
39.804374999999894,43.32416861111023,97.00312000000002,-0.9024114623999999
39.80687499999989,43.32437861111025,96.99954000000001,-0.907143663
39.80937499999989,43.324588611110265,96.99596,-0.9070000340000001
39.81270833333323,43.321815277776935,96.99238000000003,-0.9136016972000001
39.81604166666656,43.3213319444436,96.99238000000003,-0.8942470929999999
39.81937499999989,43.320848611110264,96.98880000000001,-0.8677145040000002
39.82437499999989,43.31439861111025,96.98522,-0.8423977728
39.82937499999989,43.30794861111023,96.98164000000003,-0.81604298
39.83270833333322,43.30746527777693,96.97806000000001,-0.8120152060000001
39.83604166666655,43.30698194444359,96.97448,-0.8094457099999999
39.83937499999988,43.30649861111026,96.97090000000003,-0.8134850278
39.84270833333322,43.3060152777769,96.97547999999999,-0.8088892402000001
39.84604166666655,43.30934861111023,96.97189999999996,-0.7786118720000001
39.84937499999988,43.31268194444356,96.96831999999995,-0.74015788
39.85437499999988,43.31004861111023,96.96473999999998,-0.70728669
39.85937499999988,43.30359861111021,96.96115999999996,-0.6993834200000001
39.86270833333321,43.30311527777688,96.95757999999995,-0.7172747739999998
39.86604166666654,43.30263194444355,96.95399999999998,-0.738557412
39.86937499999987,43.30214861111021,96.95041999999997,-0.737665722
39.87437499999987,43.299515277776855,96.94683999999995,-0.715059144
39.879374999999875,43.2968819444435,96.94325999999998,-0.684450276
39.88437499999988,43.29424861111014,96.93967999999997,-0.6491203480000001
39.88937499999988,43.29161527777682,96.93609999999995,-0.6388360220000001
39.89437499999988,43.288981944443464,96.93251999999998,-0.647456682
39.899374999999885,43.28634861111011,96.92893999999997,-0.6610412720000001
39.902708333333216,43.28968194444344,96.92535999999996,-0.666805282
39.906041666666546,43.29301527777677,96.92636,-0.6459616680000001
39.909374999999876,43.2963486111101,96.92277999999999,-0.6174415639999999
39.91437499999988,43.29371527777674,96.91919999999998,-0.5958144400000001
39.91937499999988,43.291081944443384,96.91562,-0.58323691
39.924374999999884,43.28844861111003,96.91203999999999,-0.573370972
39.92937499999989,43.28581527777667,96.90845999999996,-0.576371176
39.93437499999989,43.283181944443314,96.90488,-0.5814935639999999
39.93937499999989,43.28054861110996,96.90129999999999,-0.580744004
39.94937499999989,43.267648611109976,96.9023,-0.565529336
39.95437499999989,43.27264861110998,96.89872000000003,-0.543532452
39.959374999999895,43.27001527777662,96.89514000000001,-0.529256274
39.96437499999989,43.267381944443294,96.89155999999998,-0.5289749260000001
39.96937499999989,43.26474861110994,96.88798000000003,-0.543053482
39.974374999999895,43.26974861110994,96.88081999999999,-0.554455992
39.9793749999999,43.27474861110994,96.87724000000003,-0.5548928500000001
39.9843749999999,43.27211527777662,96.87823999999996,-0.538486076
39.9893749999999,43.269481944443264,96.87465999999995,-0.503135372
39.99937499999991,43.248948611109896,96.87107999999998,-0.46856452800000004
40.00437499999991,43.25394861110987,96.86749999999996,-0.45948718
40.00937499999991,43.25894861110987,96.86392,-0.4745108680000001
40.014374999999916,43.263948611109875,96.86033999999998,-0.505714122
40.01937499999992,43.26894861110988,96.85776000000001,-0.521414614
40.02937499999992,43.25604861110987,96.85418,-0.508726192
40.034374999999926,43.26104861110987,96.85059999999999,-0.47573695199999994
40.03937499999993,43.26604861110987,96.84702000000001,-0.44469493600000004
40.04937499999993,43.25314861110989,96.84344,-0.43263806800000004
40.05437499999992,43.25814861110992,96.84444,-0.4421401300000002
40.059374999999925,43.263148611109926,96.83728000000002,-0.4601985440000001
40.06937499999993,43.25024861110992,96.83370000000001,-0.46670130600000004
40.07437499999993,43.25524861110992,96.83012000000004,-0.4539136840000001
40.079374999999935,43.26024861110992,96.82654000000002,-0.427860808
40.08937499999993,43.24734861110994,96.82753999999996,-0.40585070200000006
40.094374999999935,43.252348611109944,96.82396,-0.39074579200000004
40.09937499999994,43.25734861110995,96.81679999999996,-0.393353072
40.109374999999936,43.244448611109966,96.81322,-0.403523196
40.119374999999934,43.231548611109986,96.80963999999997,-0.41305152200000006
40.12437499999993,43.23654861111001,96.81063999999998,-0.41552539600000005
40.12937499999993,43.24154861111001,96.80706000000002,-0.40072271400000004
40.13937499999994,43.22864861111,96.79989999999998,-0.3825450519999999
40.149374999999935,43.21574861111002,96.79632000000002,-0.3697716040000001
40.15437499999993,43.24364861111003,96.79732000000003,-0.36626649599999994
40.15937499999993,43.24864861111,96.79374,-0.375483092
40.16937499999993,43.23574861111002,96.79016000000004,-0.38162332000000004
40.179374999999936,43.22284861111002,96.783,-0.37807118999999995
40.189374999999934,43.209948611110036,96.77942000000004,-0.36054313999999993
40.19437499999994,43.23784861111002,96.78041999999998,-0.33720284
40.19937499999994,43.242848611109984,96.77683999999996,-0.322141436
40.209374999999945,43.229948611109975,96.77326,-0.32130941600000007
40.21937499999994,43.217048611109995,96.76609999999997,-0.335841228
40.22937499999994,43.204148611110014,96.76710000000001,-0.349023598
40.23937499999994,43.21414861111005,96.76352,-0.35622623999999997
40.249374999999944,43.20124861111004,96.75993999999999,-0.34562328600000003
40.25437499999994,43.20624861111007,96.75636000000002,-0.32260515599999995
40.25937499999994,43.23414861111005,96.75378,-0.301042594
40.26937499999994,43.221248611110035,96.75020000000004,-0.2924369419999999
40.279374999999945,43.20834861111003,96.74662000000002,-0.30415644799999997
40.28937499999994,43.21834861111006,96.74304000000001,-0.321308866
40.29937499999994,43.20544861111008,96.74045999999997,-0.32882103
40.30937499999994,43.1925486111101,96.73687999999996,-0.3231368680000001
40.319374999999944,43.20254861111007,96.73329999999999,-0.30746509400000005
40.32937499999994,43.2125486111101,96.72971999999997,-0.29805209200000005
40.33937499999994,43.199648611110085,96.73071999999998,-0.29407143
40.349374999999945,43.18674861111008,96.72355999999999,-0.29720948999999997
40.35937499999994,43.19674861111008,96.71997999999998,-0.30622458799999996
40.36937499999994,43.20674861111008,96.71640000000001,-0.3093544140000001
40.37937499999994,43.1938486111101,96.71740000000001,-0.30682271400000005
40.389374999999944,43.18094861111009,96.71024000000004,-0.29775053399999996
40.39937499999994,43.19094861111009,96.70666000000001,-0.28263489599999997
40.40937499999994,43.200948611110086,96.70308,-0.27243081599999996
40.41937499999994,43.188048611110105,96.70407999999999,-0.26482034800000004
40.42937499999994,43.175148611110096,96.69691999999996,-0.263928438
40.43937499999994,43.185148611110094,96.69333999999999,-0.271630792
40.44937499999994,43.19514861111009,96.69434,-0.27596906
40.459374999999945,43.20514861111007,96.69075999999998,-0.277538176
40.46937499999994,43.19224861111009,96.68718000000001,-0.266268494
40.47937499999994,43.1793486111101,96.68001999999998,-0.25258553200000006
40.48937499999994,43.189348611110105,96.68102000000003,-0.24719986400000002
40.499374999999944,43.199348611110075,96.67744000000002,-0.25249937800000005
40.50937499999994,43.2093486111101,96.67386,-0.26554251799999995
40.51937499999994,43.21934861111011,96.66670000000002,-0.27067594399999995
40.529374999999945,43.229348611110076,96.66769999999995,-0.26473664399999997
40.53937499999994,43.21644861111006,96.66411999999998,-0.247479878
40.54937499999994,43.20354861111008,96.66053999999997,-0.23217724
40.569374999999944,43.17774861111009,96.65796000000002,-0.227384404
40.57937499999994,43.18774861111009,96.65437999999999,-0.23277022199999997
40.58937499999994,43.197748611110086,96.65079999999998,-0.244858018
40.599374999999945,43.20774861111006,96.64722,-0.25079646400000005
40.60937499999994,43.21774861111009,96.64822000000001,-0.24424352800000004
40.61937499999994,43.22774861111009,96.64106000000004,-0.22967474600000004
40.639374999999944,43.20194861111007,96.63748000000001,-0.21732113999999997
40.64937499999994,43.2119486111101,96.63847999999996,-0.212508582
40.65937499999994,43.2219486111101,96.63489999999999,-0.21745152999999998
40.66937499999994,43.2319486111101,96.63131999999997,-0.22534576399999995
40.67937499999994,43.24194861111007,96.62415999999999,-0.228689244
40.69937499999994,43.21614861111011,96.62516,-0.22475129600000002
40.709374999999945,43.22614861111008,96.62157999999998,-0.21790510200000007
40.71937499999994,43.236148611110075,96.61800000000001,-0.20949489599999999
40.72937499999994,43.24614861111011,96.61442,-0.20639399200000003
40.749374999999944,43.22034861111009,96.61184000000003,-0.20811979400000008
40.75937499999994,43.23034861111009,96.60826000000002,-0.208031792
40.76937499999994,43.240348611110086,96.60468,-0.20869089399999996
40.779374999999945,43.25034861111009,96.60567999999999,-0.205123854
40.79937499999994,43.224548611110094,96.60209999999996,-0.200786728
40.80937499999994,43.23454861111009,96.59851999999995,-0.19348770800000004
40.819374999999944,43.2445486111101,96.59135999999997,-0.18595935599999996
40.83937499999994,43.2187486111101,96.59235999999997,-0.17965419800000001
40.849374999999945,43.22874861111008,96.58878000000001,-0.179966216
40.85937499999994,43.238748611110076,96.58519999999999,-0.18606220000000007
40.87937499999994,43.21294861111011,96.58161999999997,-0.19143011799999993
40.889374999999944,43.222948611110084,96.58262000000003,-0.19238912199999997
40.89937499999994,43.23294861111008,96.57904,-0.18348785
40.91937499999994,43.207148611110085,96.57188000000004,-0.17502519600000005
40.92937499999994,43.21714861111009,96.57287999999997,-0.16870339
40.94937499999994,43.191348611110094,96.56929999999996,-0.168537974
40.959374999999945,43.24714861111009,96.56571999999998,-0.17400514
40.96937499999994,43.25714861111009,96.56213999999997,-0.175184684
40.98937499999994,43.23134861111009,96.56313999999998,-0.17328903999999995
40.999374999999944,43.24134861111007,96.55956,-0.16848572400000003
41.01937499999994,43.21554861111011,96.55597999999999,-0.16018654800000004
41.029374999999945,43.22554861111008,96.55239999999998,-0.15871240399999997
41.04937499999994,43.24554861111011,96.55340000000002,-0.15820314400000002
41.05937499999994,43.25554861111011,96.54982000000001,-0.160182104
41.07937499999994,43.22974861111008,96.54266000000003,-0.16295137599999998
41.08937499999994,43.23974861111008,96.53908000000001,-0.16304095000000005
41.10937499999994,43.2139486111101,96.54008,-0.163009836
41.11937499999994,43.26974861111008,96.53649999999999,-0.15925794800000004
41.139374999999944,43.2439486111101,96.53291999999996,-0.156619228
41.14937499999994,43.2539486111101,96.52934,-0.153420546
41.16937499999994,43.2281486111101,96.53034000000001,-0.15200847
41.17937499999994,43.2839486111101,96.52676,-0.15318254399999998
41.19937499999994,43.2581486111101,96.52318000000002,-0.155214886
41.209374999999945,43.26814861111007,96.51960000000001,-0.15675760800000002
41.22937499999994,43.242348611110074,96.52060000000002,-0.15436432400000002
41.23937499999994,43.2981486111101,96.51702000000004,-0.150576066
41.25937499999994,43.272348611110075,96.51344000000003,-0.1440712
41.26937499999994,43.28234861111011,96.50986,-0.14141107399999997
41.28937499999994,43.30234861111008,96.51086,-0.145049162
41.30937499999994,43.27654861111009,96.50727999999998,-0.150565394
41.319374999999944,43.28654861111009,96.50369999999997,-0.15519012199999999
41.33937499999994,43.260748611110095,96.50012,-0.153574926
41.35937499999994,43.2807486111101,96.50112,-0.14614730400000003
41.36937499999994,43.2907486111101,96.49753999999999,-0.139162814
41.389374999999944,43.310748611110064,96.49396000000002,-0.13682401
41.39937499999994,43.3207486111101,96.49038,-0.137588448
41.41937499999994,43.2949486111101,96.48679999999999,-0.14262738400000002
