Time,Temperature,Weight,Deriv. Weight
39.65,43.13040000000001,97.23116000000002,-1.6524152799999998
39.650625,43.13322222222222,97.23116000000002,-1.604503304
39.65125,43.13604444444443,97.22764,-1.5763938479999997
39.651875,43.13886666666664,97.22311999999998,-1.4884905584
39.652499999999996,43.14168888888885,97.22311999999998,-1.322691304
39.653124999999996,43.14451111111106,97.22212000000003,-1.1543517199999997
39.653749999999995,43.147333333333265,97.22212000000003,-0.98008668
39.654374999999995,43.15015555555547,97.22212000000003,-0.8738152799999999
39.654999999999994,43.152977777777686,97.21760000000002,-0.8280800799999998
39.65562499999999,43.15579999999989,97.21760000000002,-0.81335272
39.65624999999999,43.1586222222221,97.21307999999999,-0.81729288
39.65687499999999,43.161444444444314,97.21307999999999,-0.7698768399999998
39.65749999999999,43.16426666666652,97.21307999999999,-0.69599312
39.65812499999999,43.16708888888873,97.21208,-0.58647568
39.65874999999999,43.169911111110935,97.21208,-0.5268309999999999
39.65937499999999,43.17273333333315,97.20755999999999,-0.57862104
39.66004166666666,43.17540888888868,97.20755999999999,-0.68144928
39.660708333333325,43.178084444444224,97.20755999999999,-0.8086023599999999
39.66137499999999,43.18075999999976,97.20303999999996,-0.87753612
39.66204166666666,43.1834355555553,97.20655999999998,-0.8334819999999998
39.66270833333333,43.18611111111083,97.20204000000001,-0.7268425999999999
39.663374999999995,43.188786666666374,97.20204000000001,-0.6172452399999999
39.66404166666666,43.19146222222191,97.20204000000001,-0.5972394000000001
39.66470833333333,43.19413777777745,97.19752,-0.7124090799999999
39.665375,43.19681333333298,97.19752,-0.86124444
39.666041666666665,43.199488888888524,97.19651999999999,-0.970314
39.66670833333333,43.20216444444406,97.19651999999999,-0.9640540799999999
39.667375,43.204337777777376,97.19651999999999,-0.8746202000000001
39.66804166666667,43.2065111111107,97.19200000000004,-0.7864509599999999
39.668708333333335,43.20868444444402,97.19200000000004,-0.7624820799999998
39.669375,43.210857777777335,97.19200000000004,-0.84549156
39.67014423076923,43.21267008546964,97.18748000000001,-0.9910627999999999
39.67091346153846,43.214482393161944,97.19099999999997,-1.08749412
39.67168269230769,43.21629470085424,97.19099999999997,-1.0920732
39.67245192307692,43.218107008546546,97.18647999999996,-1.01628092
39.67322115384615,43.219919316238844,97.18647999999996,-0.90773504
39.67399038461538,43.22173162393115,97.18196,-0.8816045599999998
39.67475961538461,43.22404615384566,97.18196,-0.90364092
39.67552884615384,43.226360683760184,97.18196,-1.01905924
39.67629807692307,43.228675213674705,97.18196,-1.12849176
39.6770673076923,43.23098974358922,97.17743999999998,-1.1266528399999998
39.67783653846153,43.23330427350374,97.17743999999998,-1.0379422399999998
39.67860576923076,43.23561880341826,97.17291999999996,-0.8630152
39.679374999999986,43.23793333333278,97.17643999999997,-0.7316508400000001
39.68020833333332,43.240022222221654,97.17643999999997,-0.70918652
39.68104166666665,43.24211111111053,97.17643999999997,-0.7806082
39.681874999999984,43.24419999999941,97.17192000000001,-0.8797554399999998
39.682708333333316,43.24628888888829,97.17192000000001,-0.9164406799999998
39.68354166666665,43.248377777777165,97.17192000000001,-0.8291665199999998
39.68437499999998,43.250466666666036,97.1674,-0.6713375999999999
39.685208333333314,43.25255555555491,97.1674,-0.5251395999999999
39.68604166666665,43.25464444444379,97.17092000000001,-0.4861429600000001
39.68687499999998,43.25673333333267,97.1664,-0.57257968
39.68770833333331,43.258822222221546,97.1664,-0.6946834799999999
39.688541666666644,43.26091111111042,97.1664,-0.7749847599999999
39.68937499999998,43.262999999999295,97.1664,-0.7460120799999999
39.690486111111085,43.2641111111104,97.16188000000004,-0.63425304
39.69159722222219,43.26522222222151,97.1654,-0.5574558000000001
39.6927083333333,43.26633333333262,97.1654,-0.58263228
39.69381944444441,43.267444444443726,97.16087999999998,-0.668364
39.694930555555516,43.26855555555483,97.16087999999998,-0.8059700799999999
39.69604166666662,43.26966666666594,97.16087999999998,-0.8735919679999997
39.69715277777773,43.27077777777705,97.16087999999998,-0.8381663599999999
39.69826388888884,43.27188888888816,97.15635999999995,-0.7873117919999999
39.69937499999995,43.2729999999993,97.15635999999995,-0.738826624
39.70048611111106,43.27411111111038,97.15635999999995,-0.78212112
39.70159722222217,43.27522222222149,97.15635999999995,-0.941497128
39.70270833333328,43.276333333332595,97.15183999999999,-1.1309206991999998
39.703819444444385,43.2774444444437,97.15183999999999,-1.2495090399999997
39.70493055555549,43.27855555555481,97.15183999999999,-1.292769624
39.7060416666666,43.27966666666592,97.14731999999998,-1.2299936319999998
39.70715277777771,43.280777777777026,97.14731999999998,-1.1621289919999997
39.708263888888816,43.28188888888813,97.14731999999998,-1.16345856
39.70937499999992,43.28362777777703,97.14731999999998,-1.2024048239999998
39.71080357142849,43.28424920634846,97.14279999999995,-1.300243648
39.71223214285706,43.28487063491989,97.14279999999995,-1.40953204
39.71366071428563,43.285492063491326,97.14279999999995,-1.44945912
39.7150892857142,43.28611349206275,97.13828,-1.4155084799999997
39.71651785714277,43.28673492063419,97.13476000000003,-1.31508152
39.71794642857134,43.287356349205616,97.13476000000003,-1.2272802399999998
39.71937499999991,43.28797777777705,97.13476000000003,-1.2547545599999999
39.72104166666657,43.288568253967526,97.13476000000003,-1.3415383599999997
39.72270833333324,43.28915873015799,97.13024000000001,-1.4451488799999996
39.7243749999999,43.28974920634846,97.12671999999999,-1.4931691599999999
39.72604166666657,43.290339682538935,97.12671999999999,-1.46206932
39.72770833333323,43.29093015872941,97.12671999999999,-1.3977905999999998
39.7293749999999,43.29152063491988,97.11867999999996,-1.3333266
39.7313749999999,43.290937777777,97.11867999999996,-1.3013335199999998
39.7333749999999,43.29035492063412,97.11867999999996,-1.31175432
39.735374999999905,43.28977206349125,97.11515999999999,-1.3369334
39.73737499999991,43.289189206348375,97.11064000000003,-1.3360574
39.73937499999991,43.288606349205494,97.11064000000003,-1.31635728
39.74137499999991,43.28802349206262,97.10712000000001,-1.271825
39.743374999999915,43.28744063491975,97.10712000000001,-1.22850612
39.74537499999992,43.286857777776866,97.10712000000001,-1.2120614399999998
39.74737499999992,43.28735111111018,97.1036,-1.2043574759999998
39.74937499999992,43.2878444444435,97.09907999999997,-1.2199849959999998
39.751374999999925,43.288337777776825,97.09556,-1.2321910999999997
39.75337499999993,43.28883111111014,97.09556,-1.2239033759999998
39.75537499999993,43.28932444444346,97.09204,-1.1999823399999998
39.75737499999993,43.289817777776776,97.09204,-1.1496191
39.759374999999935,43.29031111111009,97.08851999999997,-1.108650532
39.76187499999993,43.28904444444343,97.08851999999997,-1.0941376399999998
39.76437499999993,43.28777777777676,97.08048,-1.109331388
39.76687499999993,43.286511111110094,97.07695999999997,-1.1386090279999999
39.769374999999926,43.28524444444343,97.07695999999997,-1.138617804
39.77187499999992,43.28397777777676,97.07343999999995,-1.0996908239999998
39.77437499999992,43.28421777777678,97.07343999999995,-1.0363119719999996
39.77687499999992,43.2844577777768,97.06991999999998,-0.9932289599999997
39.779374999999916,43.28469777777682,97.06639999999997,-0.976968584
39.78270833333325,43.28200444444351,97.06639999999997,-0.9809932999999997
39.78604166666658,43.2793111111102,97.06287999999995,-0.9925789079999999
39.78937499999991,43.27887777777687,97.05935999999998,-0.9873965159999998
39.79270833333324,43.27844444444354,97.05935999999998,-0.9749456119999999
39.79604166666657,43.2780111111102,97.05583999999998,-0.9478292239999999
39.7993749999999,43.27757777777687,97.0478,-0.9208411759999999
39.801874999999896,43.27781777777689,97.04428000000003,-0.897870132
39.804374999999894,43.27805777777691,97.04428000000003,-0.8874011855999999
39.80687499999989,43.27829777777693,97.04076,-0.8920412219999998
39.80937499999989,43.27853777777695,97.03724,-0.8918873960000001
39.81270833333323,43.27584444444361,97.03372000000003,-0.8983986968
39.81604166666656,43.27541111111027,97.03372000000003,-0.8793556419999999
39.81937499999989,43.27497777777694,97.03020000000001,-0.853197576
39.82437499999989,43.26867777777692,97.02668,-0.8282114832
39.82937499999989,43.262377777776905,97.02316000000003,-0.8021931199999999
39.83270833333322,43.2619444444436,97.01964000000001,-0.798206164
39.83604166666655,43.261511111110266,97.01612,-0.79571774
39.83937499999988,43.26107777777693,97.01260000000002,-0.7997499532
39.84270833333322,43.26064444444358,97.01711999999999,-0.7952466387999999
39.84604166666655,43.26397777777691,97.01359999999997,-0.7653885679999999
39.84937499999988,43.26731111111024,97.01007999999995,-0.72743872
39.85437499999988,43.26477777777691,97.00655999999998,-0.6950058599999999
39.85937499999988,43.25847777777689,97.00303999999997,-0.68721548
39.86270833333321,43.258044444443556,96.99951999999995,-0.7048889559999998
39.86604166666654,43.25761111111022,96.99599999999998,-0.725924328
39.86937499999987,43.25717777777689,96.99247999999997,-0.7250764679999999
39.87437499999987,43.254644444443535,96.98895999999995,-0.7027887359999998
39.879374999999875,43.252111111110175,96.98543999999998,-0.6725857439999998
39.88437499999988,43.24957777777682,96.98191999999997,-0.6377401119999999
39.88937499999988,43.247044444443496,96.97839999999995,-0.627591668
39.89437499999988,43.24451111111014,96.97487999999998,-0.6360997079999998
39.899374999999885,43.24197777777678,96.97135999999996,-0.649511168
39.902708333333216,43.24531111111011,96.96783999999995,-0.6552041079999998
39.906041666666546,43.24864444444344,96.96884,-0.634674192
39.909374999999876,43.25197777777677,96.96531999999999,-0.6065572159999999
39.91437499999988,43.24944444444342,96.96179999999997,-0.58522336
39.91937499999988,43.246911111110066,96.95828,-0.57281854
39.924374999999884,43.244377777776705,96.95476,-0.5631059679999999
39.92937499999989,43.24184444444335,96.95123999999997,-0.5660903439999999
39.93437499999989,43.23931111111,96.94772,-0.5711672159999998
39.93937499999989,43.23677777777664,96.94419999999998,-0.5704555759999999
39.94937499999989,43.22417777777666,96.94519999999999,-0.5554733839999999
39.95437499999989,43.22917777777666,96.94168000000002,-0.5337800879999999
39.959374999999895,43.2266444444433,96.93816000000001,-0.5196799559999999
39.96437499999989,43.22411111110998,96.93463999999999,-0.5193878439999999
39.96937499999989,43.221577777776616,96.93112000000002,-0.5332919079999999
39.974374999999895,43.22657777777662,96.92407999999999,-0.5446068479999999
39.9793749999999,43.23157777777662,96.92056000000002,-0.5450929
39.9843749999999,43.229044444443296,96.92155999999997,-0.528927944
39.9893749999999,43.22651111110994,96.91803999999995,-0.494068568
39.99937499999991,43.20637777777658,96.91451999999998,-0.45997303199999995
40.00437499999991,43.21137777777655,96.91099999999996,-0.45102591999999997
40.00937499999991,43.21637777777655,96.90747999999999,-0.465845992
40.014374999999916,43.22137777777655,96.90395999999998,-0.4966240679999999
40.01937499999992,43.226377777776555,96.90144000000002,-0.5121309159999998
40.02937499999992,43.21377777777655,96.89792,-0.49963664799999996
40.034374999999926,43.21877777777655,96.89439999999999,-0.4671140879999999
40.03937499999993,43.223777777776554,96.89088000000002,-0.436500784
40.04937499999993,43.21117777777658,96.88736,-0.424615792
40.05437499999992,43.2161777777766,96.88836,-0.4340132200000001
40.059374999999925,43.2211777777766,96.88132000000002,-0.45185333599999994
40.06937499999993,43.2085777777766,96.87780000000001,-0.4582985639999999
40.07437499999993,43.2135777777766,96.87428000000004,-0.44570449600000006
40.079374999999935,43.2185777777766,96.87076000000002,-0.4200183519999999
40.08937499999993,43.205977777776624,96.87175999999997,-0.398311588
40.094374999999935,43.21097777777662,96.86824,-0.383425048
40.09937499999994,43.21597777777663,96.86119999999997,-0.386022368
40.109374999999936,43.203377777776645,96.85768,-0.39607622399999987
40.119374999999934,43.19077777777666,96.85415999999998,-0.40550466799999996
40.12437499999993,43.19577777777669,96.85515999999998,-0.407965024
40.12937499999993,43.20077777777669,96.85164000000002,-0.3933803159999999
40.13937499999994,43.18817777777669,96.84459999999999,-0.3754644879999999
40.149374999999935,43.1755777777767,96.84108000000002,-0.36287497599999996
40.15437499999993,43.203177777776716,96.84208000000002,-0.3594414239999999
40.15937499999993,43.20817777777668,96.83856,-0.36855324799999994
40.16937499999993,43.1955777777767,96.83504000000003,-0.37463907999999996
40.179374999999936,43.18297777777669,96.828,-0.37115285999999986
40.189374999999934,43.170377777776714,96.82448000000004,-0.3538781599999999
40.19437499999994,43.19797777777669,96.82547999999997,-0.33087295999999994
40.19937499999994,43.20297777777667,96.82195999999996,-0.316021784
40.209374999999945,43.19037777777666,96.81844,-0.315211904
40.21937499999994,43.177777777776676,96.81139999999996,-0.32955283199999996
40.22937499999994,43.1651777777767,96.81240000000001,-0.3425716119999999
40.23937499999994,43.175177777776724,96.80888,-0.3496875599999999
40.249374999999944,43.16257777777672,96.80535999999998,-0.33924068400000007
40.25437499999994,43.16757777777675,96.80184000000001,-0.31654646399999986
40.25937499999994,43.19517777777673,96.79932000000001,-0.29528503599999995
40.26937499999994,43.182577777776714,96.79580000000004,-0.2868161479999999
40.279374999999945,43.16997777777671,96.79228000000002,-0.2983865119999999
40.28937499999994,43.17997777777674,96.78876,-0.31531620399999993
40.29937499999994,43.16737777777676,96.78623999999998,-0.32273981999999996
40.30937499999994,43.15477777777678,96.78271999999996,-0.31714199199999993
40.319374999999944,43.16477777777675,96.77919999999999,-0.301697036
40.32937499999994,43.17477777777678,96.77567999999998,-0.2924212479999999
40.33937499999994,43.16217777777677,96.77667999999998,-0.28851042
40.349374999999945,43.14957777777676,96.76964,-0.29162705999999994
40.35937499999994,43.15957777777676,96.76611999999999,-0.3005336719999999
40.36937499999994,43.16957777777676,96.76260000000002,-0.30363711600000004
40.37937499999994,43.156977777776774,96.76360000000003,-0.301151316
40.389374999999944,43.14437777777677,96.75656000000004,-0.29220939599999995
40.39937499999994,43.154377777776766,96.75304000000001,-0.27731402399999994
40.40937499999994,43.164377777776764,96.74952,-0.26725850399999995
40.41937499999994,43.151777777776786,96.75052,-0.259773112
40.42937499999994,43.13917777777678,96.74347999999996,-0.25891657199999996
40.43937499999994,43.14917777777677,96.73996,-0.266521048
40.44937499999994,43.159177777776776,96.74096,-0.27079963999999995
40.459374999999945,43.169177777776746,96.73743999999998,-0.27233634399999995
40.46937499999994,43.15657777777676,96.73392000000001,-0.261224636
40.47937499999994,43.14397777777678,96.72687999999998,-0.24774860799999998
40.48937499999994,43.15397777777678,96.72788000000003,-0.24246341599999996
40.499374999999944,43.16397777777675,96.72436000000002,-0.24770993200000002
40.50937499999994,43.173977777776784,96.72084,-0.260580092
40.51937499999994,43.18397777777678,96.71380000000002,-0.26564993599999986
40.529374999999945,43.19397777777675,96.71479999999995,-0.2598027359999999
40.53937499999994,43.18137777777674,96.71127999999999,-0.24280293199999997
40.54937499999994,43.16877777777676,96.70775999999998,-0.22772955999999994
40.569374999999944,43.14357777777677,96.70524000000002,-0.223019176
40.57937499999994,43.15357777777677,96.70172,-0.22834246799999997
40.58937499999994,43.163577777776766,96.69819999999997,-0.240266092
40.599374999999945,43.17357777777674,96.69468,-0.246121816
40.60937499999994,43.18357777777677,96.69568000000001,-0.23966603199999997
40.61937499999994,43.19357777777677,96.68864000000004,-0.225317924
40.639374999999944,43.16837777777675,96.68512000000001,-0.21315515999999995
40.64937499999994,43.17837777777678,96.68611999999996,-0.20842360799999998
40.65937499999994,43.18837777777678,96.6826,-0.21330291999999998
40.66937499999994,43.19837777777678,96.67907999999997,-0.22108901599999992
40.67937499999994,43.20837777777675,96.67203999999998,-0.22439223600000002
40.69937499999994,43.183177777776784,96.67303999999999,-0.22052392399999995
40.709374999999945,43.19317777777676,96.66951999999998,-0.21378958800000003
40.71937499999994,43.20317777777676,96.66600000000001,-0.20551232399999997
40.72937499999994,43.213177777776785,96.66247999999999,-0.20246324799999998
40.749374999999944,43.187977777776766,96.65996000000003,-0.204166436
40.75937499999994,43.197977777776764,96.65644000000002,-0.204091148
40.76937499999994,43.20797777777676,96.65292,-0.20475523599999995
40.779374999999945,43.21797777777677,96.65391999999999,-0.20125617599999995
40.79937499999994,43.192777777776776,96.65039999999998,-0.19699373199999995
40.80937499999994,43.202777777776774,96.64687999999995,-0.189808052
40.819374999999944,43.21277777777678,96.63983999999996,-0.18239576399999996
40.83937499999994,43.18757777777678,96.64083999999997,-0.17618751199999996
40.849374999999945,43.19757777777676,96.63732,-0.17650120400000002
40.85937499999994,43.20757777777675,96.6338,-0.18251500000000004
40.87937499999994,43.182377777776786,96.63027999999997,-0.18781739199999992
40.889374999999944,43.19237777777676,96.63128000000003,-0.18877736799999995
40.89937499999994,43.20237777777676,96.62776000000001,-0.18002
40.91937499999994,43.17717777777676,96.62072000000003,-0.17168942400000003
40.92937499999994,43.18717777777677,96.62171999999997,-0.16546276
40.94937499999994,43.16197777777678,96.61819999999996,-0.16530305599999998
40.959374999999945,43.21717777777677,96.61467999999999,-0.17069506
40.96937499999994,43.22717777777677,96.61115999999997,-0.17186759599999996
40.98937499999994,43.201977777776776,96.61215999999997,-0.17001075999999996
40.999374999999944,43.211977777776745,96.60864000000001,-0.165282756
41.01937499999994,43.18677777777678,96.60511999999999,-0.15711211199999997
41.029374999999945,43.19677777777676,96.60159999999998,-0.15566327599999996
41.04937499999994,43.216777777776784,96.60260000000002,-0.15516523599999998
41.05937499999994,43.22677777777678,96.59908000000001,-0.15712337599999998
41.07937499999994,43.20157777777676,96.59204000000003,-0.15985944399999996
41.08937499999994,43.21157777777676,96.58852000000002,-0.1599574
41.10937499999994,43.18637777777678,96.58952000000001,-0.15993758399999997
41.11937499999994,43.24157777777676,96.58599999999998,-0.15624561199999998
41.139374999999944,43.21637777777678,96.58247999999998,-0.153646132
41.14937499999994,43.226377777776776,96.57896,-0.15049202399999997
41.16937499999994,43.20117777777678,96.57996,-0.14910288
41.17937499999994,43.25637777777678,96.57643999999999,-0.15026973599999996
41.19937499999994,43.23117777777678,96.57292000000002,-0.15228738399999997
41.209374999999945,43.241177777776755,96.5694,-0.153824352
41.22937499999994,43.21597777777676,96.5704,-0.151473056
41.23937499999994,43.27117777777678,96.56688000000004,-0.147741204
41.25937499999994,43.24597777777676,96.56336000000003,-0.1413295
41.26937499999994,43.25597777777679,96.55984000000001,-0.13871015599999997
41.28937499999994,43.27597777777676,96.56084,-0.142306928
41.30937499999994,43.25077777777676,96.55731999999999,-0.14775593599999998
41.319374999999944,43.26077777777677,96.55379999999997,-0.15232506799999995
41.33937499999994,43.235577777776776,96.55028,-0.150738444
41.35937499999994,43.25557777777678,96.55128,-0.143421576
41.36937499999994,43.26557777777678,96.54775999999998,-0.13654061599999998
41.389374999999944,43.285577777776744,96.54424000000002,-0.13423713999999998
