Time,Temperature,Weight,Deriv. Weight
39.65,43.26900000000001,97.11560000000001,-1.7228248
39.650625,43.27190972222222,97.11560000000001,-1.6716959900000004
39.65125,43.27481944444443,97.11189999999999,-1.6415398799999998
39.651875,43.27772916666664,97.10719999999998,-1.5479206040000002
39.652499999999996,43.280638888888845,97.10719999999998,-1.3729639900000001
39.653124999999996,43.28354861111106,97.10620000000003,-1.1959787
39.653749999999995,43.286458333333265,97.10620000000003,-1.0131183000000001
39.654374999999995,43.28936805555547,97.10620000000003,-0.9015513
39.654999999999994,43.292277777777684,97.10150000000002,-0.8529162999999998
39.65562499999999,43.29518749999989,97.10150000000002,-0.8362957000000001
39.65624999999999,43.2980972222221,97.09679999999999,-0.8393733000000001
39.65687499999999,43.3010069444443,97.09679999999999,-0.7891488999999999
39.65749999999999,43.30391666666652,97.09679999999999,-0.7120232000000002
39.65812499999999,43.30682638888872,97.0958,-0.5980243000000001
39.65874999999999,43.30973611111093,97.0958,-0.5362765
39.65937499999999,43.31264583333314,97.09109999999998,-0.5907624
39.66004166666666,43.315401388888674,97.09109999999998,-0.6977958
39.660708333333325,43.31815694444421,97.09109999999998,-0.8301605999999999
39.66137499999999,43.32091249999975,97.08639999999995,-0.9019632
39.66204166666666,43.32366805555529,97.09009999999998,-0.85627
39.66270833333333,43.326423611110826,97.08540000000002,-0.7457075
39.663374999999995,43.32917916666636,97.08540000000002,-0.6318049
39.66404166666666,43.331934722221895,97.08540000000002,-0.6110265000000001
39.66470833333333,43.33469027777743,97.0807,-0.7311747999999999
39.665375,43.33744583333297,97.0807,-0.8863449000000001
39.666041666666665,43.34020138888851,97.07969999999999,-1.0003785
39.66670833333333,43.34295694444404,97.07969999999999,-0.9942903
39.667375,43.34519027777736,97.07969999999999,-0.9014465000000002
39.66804166666667,43.347423611110685,97.07500000000003,-0.8099586
39.668708333333335,43.349656944444,97.07500000000003,-0.7851043
39.669375,43.35189027777732,97.07500000000003,-0.8717856000000002
39.67014423076923,43.35374412393116,97.07030000000002,-1.0238705000000001
39.67091346153846,43.355597970085,97.07399999999998,-1.1244897
39.67168269230769,43.35745181623884,97.07399999999998,-1.12965
39.67245192307692,43.35930566239268,97.06929999999996,-1.0509932000000002
39.67322115384615,43.36115950854652,97.06929999999996,-0.9382319000000001
39.67399038461538,43.36301335470036,97.0646,-0.9116470999999999
39.67475961538461,43.365389423076415,97.0646,-0.9346092
39.67552884615384,43.367765491452474,97.0646,-1.0550344000000003
39.67629807692307,43.37014155982853,97.0646,-1.1689986
39.6770673076923,43.37251762820459,97.05989999999997,-1.1669848999999999
39.67783653846153,43.37489369658064,97.05989999999997,-1.0747049
39.67860576923076,43.3772697649567,97.05519999999996,-0.8923615000000001
39.679374999999986,43.37964583333276,97.05889999999997,-0.7554409000000002
39.68020833333332,43.38178472222164,97.05889999999997,-0.7317452000000001
39.68104166666665,43.38392361111051,97.05889999999997,-0.8058010000000001
39.681874999999984,43.38606249999938,97.05420000000002,-0.9087574
39.682708333333316,43.38820138888826,97.05420000000002,-0.9466597999999999
39.68354166666665,43.39034027777714,97.05420000000002,-0.8556266999999999
39.68437499999998,43.392479166666014,97.0495,-0.69117
39.685208333333314,43.394618055554886,97.0495,-0.5387665
39.68604166666665,43.396756944443766,97.05320000000002,-0.4981036000000002
39.68687499999998,43.398895833332645,97.04849999999999,-0.5880298000000002
39.68770833333331,43.40103472222152,97.04849999999999,-0.7154148
39.688541666666644,43.40317361111039,97.04849999999999,-0.7995211000000002
39.68937499999998,43.40531249999927,97.04849999999999,-0.7698447999999998
39.690486111111085,43.40642361111038,97.04380000000003,-0.6538194000000002
39.69159722222219,43.407534722221484,97.0475,-0.5741130000000001
39.6927083333333,43.40864583333259,97.0475,-0.6007068
39.69381944444441,43.4097569444437,97.04279999999997,-0.6902025
39.694930555555516,43.41086805555481,97.04279999999997,-0.8340193
39.69604166666662,43.411979166665915,97.04279999999997,-0.9047460799999998
39.69715277777773,43.41309027777702,97.04279999999997,-0.8679686
39.69826388888884,43.41420138888813,97.03809999999996,-0.8153755199999999
39.69937499999995,43.415312499999274,97.03809999999996,-0.76522294
39.70048611111106,43.41642361111035,97.03809999999996,-0.8110077000000001
39.70159722222217,43.41753472222146,97.03809999999996,-0.9779919300000002
39.70270833333328,43.41864583333257,97.0334,-1.176279252
39.703819444444385,43.41975694444368,97.0334,-1.3004201499999999
39.70493055555549,43.420868055554784,97.0334,-1.34582619
39.7060416666666,43.42197916666589,97.02869999999997,-1.28054692
39.70715277777771,43.423090277777,97.02869999999997,-1.2101002699999999
39.708263888888816,43.42420138888811,97.02869999999997,-1.2122098500000003
39.70937499999992,43.425965277777,97.02869999999997,-1.25335494
39.71080357142849,43.426554563491294,97.02399999999996,-1.35565663
39.71223214285706,43.42714384920558,97.02399999999996,-1.4698234000000001
39.71366071428563,43.42773313491987,97.02399999999996,-1.5115827000000002
39.7150892857142,43.42832242063416,97.0193,-1.4765508
39.71651785714277,43.42891170634845,97.01560000000003,-1.3722272
39.71794642857134,43.429500992062735,97.01560000000003,-1.2810709
39.71937499999991,43.430090277777026,97.01560000000003,-1.3101501
39.72104166666657,43.43063789682464,97.01560000000003,-1.4009551
39.72270833333324,43.43118551587225,97.0109,-1.5092322999999999
39.7243749999999,43.43173313491987,97.0072,-1.5594601000000001
39.72604166666657,43.43228075396748,97.0072,-1.5272952000000002
39.72770833333323,43.4328283730151,97.0072,-1.460643
39.7293749999999,43.43337599206271,96.99879999999996,-1.3937175000000002
39.7313749999999,43.43269027777698,96.99879999999996,-1.3604277
39.7333749999999,43.43200456349124,96.99879999999996,-1.3713102000000001
39.735374999999905,43.4313188492055,96.9951,-1.3976600000000001
39.73737499999991,43.43063313491977,96.99040000000004,-1.3969235000000002
39.73937499999991,43.429947420634036,96.99040000000004,-1.3765563000000003
39.74137499999991,43.429261706348306,96.98670000000001,-1.3303115
39.743374999999915,43.42857599206257,96.98670000000001,-1.2854142
39.74537499999992,43.42789027777683,96.98670000000001,-1.2686169
39.74737499999992,43.42832361111015,96.983,-1.26093711
39.74937499999992,43.42875694444347,96.97829999999998,-1.27740181
39.751374999999925,43.42919027777678,96.97460000000001,-1.29022175
39.75337499999993,43.4296236111101,96.97460000000001,-1.2815868599999998
39.75537499999993,43.43005694444342,96.97089999999999,-1.25666065
39.75737499999993,43.43049027777674,96.97089999999999,-1.2043017500000002
39.759374999999935,43.43092361111005,96.96719999999998,-1.1617737700000001
39.76187499999993,43.42950694444339,96.96719999999998,-1.1468563999999999
39.76437499999993,43.428090277776725,96.95879999999998,-1.16283043
39.76687499999993,43.42667361111006,96.95509999999997,-1.1934188300000002
39.769374999999926,43.42525694444339,96.95509999999997,-1.1934876900000002
39.77187499999992,43.423840277776726,96.95139999999995,-1.1530466400000001
39.77437499999992,43.423990277776745,96.95139999999995,-1.0871306699999999
39.77687499999992,43.42414027777677,96.94769999999998,-1.0424225999999999
39.779374999999916,43.42429027777679,96.94399999999997,-1.02559274
39.78270833333325,43.421356944443474,96.94399999999997,-1.02974675
39.78604166666658,43.418423611110164,96.94029999999995,-1.04179413
39.78937499999991,43.41784027777683,96.93659999999998,-1.03633551
39.79270833333324,43.4172569444435,96.93659999999998,-1.02334907
39.79604166666657,43.41667361111017,96.93289999999996,-0.99514514
39.7993749999999,43.41609027777684,96.9245,-0.96708386
39.801874999999896,43.41624027777686,96.92080000000003,-0.94321827
39.804374999999894,43.41639027777688,96.92080000000003,-0.9324320159999999
39.80687499999989,43.416540277776896,96.9171,-0.9373485450000001
39.80937499999989,43.416690277776915,96.9134,-0.9372253100000002
39.81270833333323,43.41375694444358,96.90970000000003,-0.9440076980000001
39.81604166666656,43.413173611110246,96.90970000000003,-0.9240299949999999
39.81937499999989,43.412590277776914,96.906,-0.89674836
39.82437499999989,43.40584027777689,96.9023,-0.8707703520000001
39.82937499999989,43.39909027777687,96.89860000000003,-0.8437427
39.83270833333322,43.398506944443575,96.8949,-0.8396332900000001
39.83604166666655,43.397923611110244,96.8912,-0.8369016499999999
39.83937499999988,43.397340277776905,96.88750000000003,-0.840955177
39.84270833333322,43.396756944443545,96.89219999999999,-0.836174443
39.84604166666655,43.400090277776876,96.88849999999996,-0.8050584800000002
39.84937499999988,43.403423611110206,96.88479999999996,-0.7655962000000001
39.85437499999988,43.40059027777688,96.88109999999999,-0.73184835
39.85937499999988,43.39384027777686,96.87739999999997,-0.7237193000000001
39.86270833333321,43.39325694444352,96.87369999999994,-0.7420464099999999
39.86604166666654,43.39267361111019,96.86999999999998,-0.7638235800000001
39.86937499999987,43.39209027777686,96.86629999999997,-0.76284423
39.87437499999987,43.3892569444435,96.86259999999994,-0.7395999600000001
39.879374999999875,43.386423611110146,96.85889999999998,-0.7081793399999999
39.88437499999988,43.38359027777679,96.85519999999997,-0.67188082
39.88937499999988,43.38075694444346,96.85149999999994,-0.6613247300000001
39.89437499999988,43.377923611110106,96.84779999999998,-0.67017063
39.899374999999885,43.37509027777675,96.84409999999997,-0.6841014800000002
39.902708333333216,43.37842361111008,96.84039999999995,-0.69000763
39.906041666666546,43.38175694444341,96.84140000000001,-0.66853662
39.909374999999876,43.38509027777674,96.83769999999998,-0.63921026
39.91437499999988,43.382256944443384,96.83399999999997,-0.6169966000000001
39.91937499999988,43.37942361111003,96.83030000000001,-0.60407365
39.924374999999884,43.37659027777667,96.82659999999998,-0.59390098
39.92937499999989,43.373756944443315,96.82289999999998,-0.59693284
39.93437499999989,43.37092361110996,96.81920000000001,-0.6021462599999999
39.93937499999989,43.3680902777766,96.81549999999999,-0.60132086
39.94937499999989,43.354590277776616,96.81649999999999,-0.5856412400000001
39.95437499999989,43.35959027777662,96.81280000000002,-0.56303718
39.959374999999895,43.35675694444326,96.8091,-0.54840891
39.96437499999989,43.353923611109934,96.80539999999999,-0.54814909
39.96937499999989,43.35109027777658,96.80170000000003,-0.56257663
39.974374999999895,43.35609027777658,96.79429999999999,-0.57415428
39.9793749999999,43.36109027777658,96.79060000000003,-0.5744927500000001
39.9843749999999,43.358256944443255,96.79159999999996,-0.5576023400000001
39.9893749999999,43.3554236111099,96.78789999999995,-0.52126898
39.99937499999991,43.33409027777653,96.78419999999998,-0.48574752
40.00437499999991,43.339090277776506,96.78049999999996,-0.47640970000000005
40.00937499999991,43.34409027777651,96.7768,-0.49184062000000006
40.014374999999916,43.34909027777651,96.77309999999999,-0.52389423
40.01937499999992,43.354090277776514,96.77040000000002,-0.53998201
40.02937499999992,43.340590277776506,96.7667,-0.52690528
40.034374999999926,43.34559027777651,96.76299999999998,-0.49298267999999995
40.03937499999993,43.35059027777651,96.75930000000002,-0.46108324000000006
40.04937499999993,43.337090277776525,96.7556,-0.44868262000000003
40.05437499999992,43.342090277776556,96.7566,-0.45839395000000016
40.059374999999925,43.34709027777656,96.74920000000003,-0.4768889600000001
40.06937499999993,43.33359027777655,96.7455,-0.4835067900000001
40.07437499999993,43.338590277776554,96.74180000000004,-0.47033206000000005
40.079374999999935,43.343590277776556,96.73810000000002,-0.44354572
40.08937499999993,43.33009027777658,96.73909999999997,-0.4209289300000001
40.094374999999935,43.33509027777658,96.7354,-0.40538728
40.09937499999994,43.34009027777658,96.72799999999997,-0.40801448000000007
40.109374999999936,43.3265902777766,96.7243,-0.41841713999999997
40.119374999999934,43.313090277776624,96.72059999999998,-0.42814523000000004
40.12437499999993,43.31809027777665,96.72159999999998,-0.43064614
40.12937499999993,43.32309027777665,96.71790000000001,-0.41540751
40.13937499999994,43.30959027777665,96.71049999999998,-0.3967061799999999
40.149374999999935,43.29609027777666,96.70680000000002,-0.3835648600000001
40.15437499999993,43.32459027777667,96.70780000000002,-0.37991664
40.15937499999993,43.329590277776646,96.70410000000001,-0.38934278000000005
40.16937499999993,43.31609027777666,96.70040000000004,-0.3955918000000001
40.179374999999936,43.30259027777665,96.693,-0.39190785
40.189374999999934,43.28909027777667,96.68930000000003,-0.3738731
40.19437499999994,43.31759027777665,96.69029999999998,-0.3498626
40.19937499999994,43.32259027777663,96.68659999999996,-0.33438074000000007
40.209374999999945,43.30909027777662,96.68289999999999,-0.33350444
40.21937499999994,43.29559027777664,96.67549999999996,-0.34841802
40.22937499999994,43.28209027777665,96.67650000000002,-0.36192757
40.23937499999994,43.29209027777669,96.6728,-0.3693036
40.249374999999944,43.27859027777668,96.66909999999999,-0.35838849000000006
40.25437499999994,43.28359027777671,96.66540000000002,-0.33472254
40.25937499999994,43.31209027777669,96.6627,-0.31255771
40.26937499999994,43.298590277776675,96.65900000000003,-0.30367852999999995
40.279374999999945,43.28509027777667,96.65530000000003,-0.31569632000000003
40.28937499999994,43.2950902777767,96.6516,-0.33329419
40.29937499999994,43.28159027777672,96.64889999999997,-0.34098345
40.30937499999994,43.26809027777674,96.64519999999996,-0.33512662000000004
40.319374999999944,43.27809027777671,96.6415,-0.31900121000000004
40.32937499999994,43.288090277776746,96.63779999999997,-0.30931378
40.33937499999994,43.27459027777673,96.63879999999997,-0.30519345000000003
40.349374999999945,43.261090277776724,96.6314,-0.30837435
40.35937499999994,43.27109027777672,96.62769999999998,-0.31760641999999994
40.36937499999994,43.28109027777672,96.62400000000001,-0.3207890100000001
40.37937499999994,43.26759027777674,96.62500000000001,-0.31816551000000004
40.389374999999944,43.25409027777673,96.61760000000004,-0.30883280999999996
40.39937499999994,43.26409027777673,96.61390000000002,-0.29327664
40.40937499999994,43.27409027777673,96.6102,-0.28277544
40.41937499999994,43.26059027777674,96.6112,-0.27491482
40.42937499999994,43.24709027777674,96.60379999999995,-0.27395217000000005
40.43937499999994,43.25709027777674,96.6001,-0.28185028
40.44937499999994,43.26709027777674,96.6011,-0.2863079
40.459374999999945,43.27709027777671,96.59739999999998,-0.28794184
40.46937499999994,43.26359027777673,96.59370000000001,-0.27635621000000005
40.47937499999994,43.25009027777675,96.58629999999998,-0.26225938000000004
40.48937499999994,43.26009027777674,96.58730000000003,-0.25667276000000006
40.499374999999944,43.27009027777672,96.58360000000002,-0.26207827000000006
40.50937499999994,43.28009027777675,96.5799,-0.27546737
40.51937499999994,43.29009027777674,96.57250000000002,-0.28072796
40.529374999999945,43.30009027777672,96.57349999999995,-0.27460446
40.53937499999994,43.2865902777767,96.56979999999999,-0.25683377
40.54937499999994,43.273090277776724,96.56609999999998,-0.24107260000000003
40.569374999999944,43.24609027777674,96.56340000000002,-0.23611486000000007
40.57937499999994,43.256090277776735,96.55969999999999,-0.24162572999999998
40.58937499999994,43.26609027777673,96.55599999999998,-0.25404187000000006
40.599374999999945,43.2760902777767,96.55230000000002,-0.26014576000000006
40.60937499999994,43.28609027777674,96.55330000000002,-0.25339852
40.61937499999994,43.296090277776734,96.54590000000003,-0.23838839000000006
40.639374999999944,43.26909027777671,96.54220000000001,-0.2256531
40.64937499999994,43.279090277776746,96.54319999999996,-0.22067853000000004
40.65937499999994,43.28909027777674,96.53949999999999,-0.22574874999999997
40.66937499999994,43.29909027777674,96.53579999999997,-0.23385925999999996
40.67937499999994,43.30909027777671,96.52839999999999,-0.23728326000000005
40.69937499999994,43.282090277776746,96.5294,-0.23320603999999998
40.709374999999945,43.29209027777672,96.52569999999997,-0.22613613000000005
40.71937499999994,43.30209027777672,96.522,-0.21746004000000002
40.72937499999994,43.31209027777675,96.5183,-0.21425548
40.749374999999944,43.28509027777673,96.51560000000003,-0.21602651000000006
40.75937499999994,43.29509027777673,96.51190000000001,-0.21591308000000003
40.76937499999994,43.30509027777673,96.5082,-0.21656220999999998
40.779374999999945,43.31509027777673,96.50919999999999,-0.21285921000000002
40.79937499999994,43.28809027777673,96.50549999999997,-0.20837271999999998
40.80937499999994,43.29809027777674,96.50179999999995,-0.20084702000000004
40.819374999999944,43.30809027777674,96.49439999999997,-0.19308653999999997
40.83937499999994,43.28109027777674,96.49539999999998,-0.18658757
40.849374999999945,43.29109027777672,96.49170000000001,-0.18689624000000005
40.85937499999994,43.301090277776716,96.48799999999999,-0.19315660000000007
40.87937499999994,43.27409027777675,96.48429999999998,-0.19865556999999995
40.889374999999944,43.28409027777673,96.48530000000002,-0.19961263
40.89937499999994,43.294090277776725,96.48160000000001,-0.19042355000000005
40.91937499999994,43.26709027777673,96.47420000000002,-0.18169674000000002
40.92937499999994,43.277090277776736,96.47519999999997,-0.17518465000000003
40.94937499999994,43.250090277776735,96.47149999999995,-0.17500781
40.959374999999945,43.30709027777674,96.46779999999998,-0.18062530000000004
40.96937499999994,43.31709027777673,96.46409999999997,-0.18181886
40.98937499999994,43.290090277776734,96.46509999999998,-0.1798456
40.999374999999944,43.30009027777671,96.46140000000001,-0.17489166000000006
41.01937499999994,43.273090277776745,96.45769999999999,-0.16633542
41.029374999999945,43.28309027777672,96.45399999999998,-0.16481066
41.04937499999994,43.30309027777675,96.45500000000003,-0.16427896000000003
41.05937499999994,43.313090277776745,96.45130000000002,-0.16629956
41.07937499999994,43.28609027777672,96.44390000000003,-0.16913524
41.08937499999994,43.29609027777673,96.4402,-0.16920805000000005
41.10937499999994,43.26909027777673,96.44120000000001,-0.16915434000000001
41.11937499999994,43.32609027777673,96.43749999999999,-0.16528262000000005
41.139374999999944,43.299090277776735,96.43379999999996,-0.16256542000000002
41.14937499999994,43.30909027777673,96.4301,-0.15927759
41.16937499999994,43.28209027777674,96.4311,-0.15781964999999998
41.17937499999994,43.339090277776734,96.42739999999999,-0.15900815999999998
41.19937499999994,43.31209027777674,96.42370000000003,-0.16106989
41.209374999999945,43.32209027777672,96.42,-0.16262412
41.22937499999994,43.29509027777672,96.421,-0.16014686000000003
41.23937499999994,43.35209027777674,96.41730000000004,-0.15624579000000002
41.25937499999994,43.325090277776724,96.41360000000003,-0.14955459999999998
41.26937499999994,43.33509027777675,96.40990000000001,-0.14681290999999996
41.28937499999994,43.355090277776725,96.4109,-0.15053363000000003
41.30937499999994,43.328090277776724,96.40719999999999,-0.15618431
41.319374999999944,43.33809027777673,96.40349999999997,-0.16092023
41.33937499999994,43.311090277776735,96.3998,-0.15924789000000003
41.35937499999994,43.33109027777674,96.4008,-0.15159876000000005
41.36937499999994,43.341090277776736,96.3971,-0.14440721
41.389374999999944,43.36109027777671,96.39340000000003,-0.14199775000000003
41.39937499999994,43.37109027777674,96.3897,-0.14277672
41.41937499999994,43.34409027777674,96.38599999999998,-0.14794576000000004
41.43937499999994,43.36409027777675,96.38700000000004,-0.14882675000000004
41.44937499999994,43.374090277776745,96.38330000000002,-0.14747098
41.46937499999994,43.34709027777672,96.37960000000001,-0.14414647000000003
