Time,Temperature,Weight,Deriv. Weight
39.65,42.83780000000001,97.47512000000002,-1.5037729599999998
39.650625,42.8404375,97.47512000000002,-1.462652078
39.65125,42.843074999999985,97.47198,-1.4388633359999996
39.651875,42.845712499999976,97.46783999999998,-1.3630271288000002
39.652499999999996,42.84834999999996,97.46783999999998,-1.216560078
39.653124999999996,42.85098749999995,97.46684000000003,-1.06647254
39.653749999999995,42.85362499999994,97.46684000000003,-0.91035326
39.654374999999995,42.85626249999993,97.46684000000003,-0.8152614599999999
39.654999999999994,42.85889999999991,97.46270000000001,-0.7756480599999999
39.65562499999999,42.8615374999999,97.46270000000001,-0.76491754
39.65624999999999,42.86417499999989,97.45855999999999,-0.7706786600000001
39.65687499999999,42.866812499999874,97.45855999999999,-0.7291913799999998
39.65749999999999,42.869449999999865,97.45855999999999,-0.66215184
39.65812499999999,42.87208749999985,97.45756,-0.56209526
39.65874999999999,42.87472499999984,97.45756,-0.5068904999999999
39.65937499999999,42.877362499999826,97.45341999999998,-0.55298928
39.66004166666666,42.87986916666648,97.45341999999998,-0.64693996
39.660708333333325,42.88237583333313,97.45341999999998,-0.76309052
39.66137499999999,42.884882499999776,97.44927999999996,-0.8259678399999999
39.66204166666666,42.88738916666643,97.45241999999998,-0.7853739999999999
39.66270833333333,42.88989583333308,97.44828000000001,-0.6870166999999999
39.663374999999995,42.892402499999726,97.44828000000001,-0.5865081799999999
39.66404166666666,42.89490916666638,97.44828000000001,-0.5681333000000001
39.66470833333333,42.89741583333303,97.44413999999999,-0.6727925599999999
39.665375,42.899922499999676,97.44413999999999,-0.8082545800000001
39.666041666666665,42.90242916666633,97.44313999999999,-0.9068445
39.66670833333333,42.90493583333298,97.44313999999999,-0.9002220599999999
39.667375,42.906982499999636,97.44313999999999,-0.8179869000000001
39.66804166666667,42.909029166666286,97.43900000000004,-0.73682372
39.668708333333335,42.911075833332944,97.43900000000004,-0.71472406
39.669375,42.913122499999595,97.43900000000004,-0.78998192
39.67014423076923,42.914847115384205,97.43486000000001,-0.9218021000000001
39.67091346153846,42.916571730768815,97.43799999999999,-1.0093923399999998
39.67168269230769,42.918296346153426,97.43799999999999,-1.0127443999999999
39.67245192307692,42.920020961538036,97.43385999999997,-0.94299944
39.67322115384615,42.921745576922646,97.43385999999997,-0.84335278
39.67399038461538,42.923470192307256,97.42972,-0.8181814199999997
39.67475961538461,42.92565480769186,97.42972,-0.83826344
39.67552884615384,42.92783942307646,97.42972,-0.9431116800000001
39.67629807692307,42.93002403846107,97.42972,-1.0429773199999999
39.6770673076923,42.93220865384568,97.42557999999998,-1.0415073799999999
39.67783653846153,42.934393269230284,97.42557999999998,-0.9603321799999998
39.67860576923076,42.936577884614884,97.42143999999996,-0.8010619
39.679374999999986,42.93876249999949,97.42457999999998,-0.6814273800000001
39.68020833333332,42.94074583333281,97.42457999999998,-0.66156264
39.68104166666665,42.94272916666613,97.42457999999998,-0.7274233999999999
39.681874999999984,42.944712499999454,97.42044000000001,-0.8185290799999998
39.682708333333316,42.94669583333278,97.42044000000001,-0.8526447599999999
39.68354166666665,42.9486791666661,97.42044000000001,-0.7733061399999999
39.68437499999998,42.950662499999424,97.41629999999999,-0.6294691999999998
39.685208333333314,42.952645833332745,97.41629999999999,-0.49637169999999997
39.68604166666665,42.95462916666607,97.41944000000001,-0.46089272000000014
39.68687499999998,42.95661249999939,97.41529999999999,-0.5399627600000001
39.68770833333331,42.95859583333271,97.41529999999999,-0.65091736
39.688541666666644,42.96057916666603,97.41529999999999,-0.7231858200000001
39.68937499999998,42.96256249999935,97.41529999999999,-0.6956985599999999
39.690486111111085,42.96367361111046,97.41116000000002,-0.59294628
39.69159722222219,42.964784722221566,97.4143,-0.5222906
39.6927083333333,42.965895833332674,97.4143,-0.54447496
39.69381944444441,42.96700694444378,97.41015999999998,-0.6222604999999999
39.694930555555516,42.96811805555489,97.41015999999998,-0.7467550599999999
39.69604166666662,42.969229166666,97.41015999999998,-0.8078221759999997
39.69715277777773,42.970340277777105,97.41015999999998,-0.7752505199999998
39.69826388888884,42.97145138888821,97.40601999999996,-0.7280661439999999
39.69937499999995,42.972562499999356,97.40601999999996,-0.6831010679999999
39.70048611111106,42.973673611110435,97.40601999999996,-0.72113834
39.70159722222217,42.97478472222154,97.40601999999996,-0.864452546
39.70270833333328,42.97589583333265,97.40188,-1.0351637543999999
39.703819444444385,42.97700694444376,97.40188,-1.14203003
39.70493055555549,42.978118055554866,97.40188,-1.1807613179999998
39.7060416666666,42.979229166665974,97.39773999999998,-1.123270024
39.70715277777771,42.98034027777708,97.39773999999998,-1.0608562939999997
39.708263888888816,42.98145138888819,97.39773999999998,-1.06053917
39.70937499999992,42.98313749999931,97.39773999999998,-1.0948434679999999
39.71080357142849,42.983826785713596,97.39359999999996,-1.183260686
39.71223214285706,42.98451607142788,97.39359999999996,-1.28225028
39.71366071428563,42.98520535714217,97.39359999999996,-1.3183093399999999
39.7150892857142,42.985894642856465,97.38946,-1.2866413599999997
39.71651785714277,42.98658392857075,97.38632000000003,-1.1944406399999998
39.71794642857134,42.98727321428504,97.38632000000003,-1.11372218
39.71937499999991,42.98796249999933,97.38632000000003,-1.1378084199999998
39.72104166666657,42.98864345238027,97.38632000000003,-1.2161030199999998
39.72270833333324,42.98932440476122,97.38218,-1.3098616599999997
39.7243749999999,42.99000535714217,97.37903999999999,-1.35322162
39.72604166666657,42.99068630952311,97.37903999999999,-1.32437024
39.72770833333323,42.99136726190407,97.37903999999999,-1.2651021999999998
39.7293749999999,42.99204821428501,97.37175999999997,-1.2058347
39.7313749999999,42.99168249999928,97.37175999999997,-1.1765791399999999
39.7333749999999,42.99131678571355,97.37175999999997,-1.18602524
39.735374999999905,42.990951071427816,97.36861999999999,-1.2087328
39.73737499999991,42.99058535714209,97.36448000000003,-1.2075623
39.73937499999991,42.99021964285635,97.36448000000003,-1.18927046
39.74137499999991,42.989853928570625,97.36134000000001,-1.1483535
39.743374999999915,42.98948821428489,97.36134000000001,-1.10836684
39.74537499999992,42.98912249999916,97.36134000000001,-1.09266658
39.74737499999992,42.989742499999146,97.3582,-1.0849115819999997
39.74937499999992,42.99036249999913,97.35405999999998,-1.0987717219999997
39.751374999999925,42.99098249999912,97.35092,-1.1096819499999997
39.75337499999993,42.991602499999104,97.35092,-1.1021271319999997
39.75537499999993,42.99222249999909,97.34778,-1.0803281299999998
39.75737499999993,42.99284249999908,97.34778,-1.0341779500000001
39.759374999999935,42.99346249999906,97.34463999999998,-0.996501474
39.76187499999993,42.992512499999066,97.34463999999998,-0.9828424799999997
39.76437499999993,42.99156249999906,97.33735999999999,-0.996388966
39.76687499999993,42.99061249999907,97.33421999999997,-1.0228994459999998
39.769374999999926,42.98966249999906,97.33421999999997,-1.022781378
39.77187499999992,42.98871249999907,97.33107999999996,-0.9870507679999999
39.77437499999992,42.98914249999908,97.33107999999996,-0.9290280539999999
39.77687499999992,42.9895724999991,97.32793999999998,-0.8893757199999999
39.779374999999916,42.99000249999912,97.32479999999997,-0.8743175879999998
39.78270833333325,42.98781583333247,97.32479999999997,-0.8780693499999999
39.78604166666658,42.985629166665824,97.32165999999995,-0.8886801059999999
39.78937499999991,42.98551249999916,97.31851999999999,-0.8840808619999998
39.79270833333324,42.98539583333249,97.31851999999999,-0.8727605339999999
39.79604166666657,42.985279166665826,97.31537999999998,-0.8479400679999998
39.7993749999999,42.985162499999156,97.3081,-0.823217732
39.801874999999896,42.98559249999917,97.30496000000002,-0.802135174
39.804374999999894,42.986022499999194,97.30496000000002,-0.7923360991999999
39.80687499999989,42.98645249999921,97.30182,-0.796392429
39.80937499999989,42.986882499999226,97.29867999999999,-0.7961740220000001
39.81270833333323,42.98469583333256,97.29554000000003,-0.8021130275999999
39.81604166666656,42.98457916666589,97.29554000000003,-0.7850431189999998
39.81937499999989,42.984462499999225,97.29240000000001,-0.761257032
39.82437499999989,42.979112499999204,97.28926,-0.7383649824
39.82937499999989,42.97376249999919,97.28612000000003,-0.7144773399999998
39.83270833333322,42.973645833332554,97.28298000000001,-0.710748898
39.83604166666655,42.973529166665884,97.27984,-0.7087739299999999
39.83937499999988,42.97341249999922,97.27670000000002,-0.7127611474
39.84270833333322,42.97329583333253,97.28083999999998,-0.7088434966
39.84604166666655,42.97662916666586,97.27769999999997,-0.681640976
39.84937499999988,42.97996249999919,97.27455999999995,-0.64688404
39.85437499999988,42.97806249999919,97.27141999999999,-0.6172272699999999
39.85937499999988,42.972712499999176,97.26827999999998,-0.61015186
39.86270833333321,42.972595833332505,97.26513999999996,-0.6264454419999999
39.86604166666654,42.97247916666584,97.26199999999999,-0.645914796
39.86937499999987,42.97236249999918,97.25885999999997,-0.6453445259999999
39.87437499999987,42.97046249999916,97.25571999999995,-0.6250761519999999
39.879374999999875,42.96856249999914,97.25257999999998,-0.5974437079999999
39.88437499999988,42.96666249999912,97.24943999999996,-0.5656652839999999
39.88937499999988,42.964762499999125,97.24629999999995,-0.5563774260000001
39.89437499999988,42.962862499999105,97.24315999999999,-0.5641722059999998
39.899374999999885,42.960962499999084,97.24001999999997,-0.576487176
39.902708333333216,42.964295833332415,97.23687999999996,-0.5817300059999999
39.906041666666546,42.967629166665745,97.23788,-0.563186844
39.909374999999876,42.970962499999075,97.23473999999999,-0.5376230120000001
39.91437499999988,42.969062499999055,97.23159999999997,-0.5181465199999999
39.91937499999988,42.967162499999034,97.22846,-0.5068355299999999
39.924374999999884,42.965262499999014,97.22531999999998,-0.4980942759999999
39.92937499999989,42.96336249999899,97.22217999999998,-0.5009784079999999
39.93437499999989,42.96146249999897,97.21904,-0.5057670119999998
39.93937499999989,42.95956249999895,97.21589999999999,-0.5052955319999999
39.94937499999989,42.94886249999897,97.2169,-0.491785688
39.95437499999989,42.95386249999897,97.21376000000002,-0.4720151159999999
39.959374999999895,42.95196249999895,97.21062,-0.4590299419999999
39.96437499999989,42.95006249999895,97.20747999999999,-0.4586696579999999
39.96937499999989,42.94816249999893,97.20434000000002,-0.47146860599999996
39.974374999999895,42.95316249999893,97.19806,-0.48222893599999994
39.9793749999999,42.958162499998934,97.19492000000002,-0.48302655
39.9843749999999,42.95626249999894,97.19591999999997,-0.468393108
39.9893749999999,42.95436249999892,97.19277999999996,-0.4366454759999999
39.99937499999991,42.93676249999889,97.18963999999998,-0.4055602239999999
40.00437499999991,42.941762499998866,97.18649999999997,-0.39743794
40.00937499999991,42.94676249999887,97.18336,-0.410968444
40.014374999999916,42.95176249999887,97.18021999999998,-0.4390537259999999
40.01937499999992,42.956762499998874,97.17808000000002,-0.4533341619999999
40.02937499999992,42.94606249999887,97.17494,-0.442069536
40.034374999999926,42.95106249999887,97.17179999999999,-0.4125026159999999
40.03937499999993,42.95606249999887,97.16866000000002,-0.38460448799999997
40.04937499999993,42.94536249999889,97.16552,-0.373808044
40.05437499999992,42.95036249999892,97.16652,-0.38254279000000013
40.059374999999925,42.95536249999892,97.16024000000002,-0.399000352
40.06937499999993,42.94466249999891,97.1571,-0.405081198
40.07437499999993,42.949662499998915,97.15396000000004,-0.393712972
40.079374999999935,42.95466249999892,97.15082000000002,-0.37034946399999985
40.08937499999993,42.94396249999893,97.15181999999997,-0.350563866
40.094374999999935,42.948962499998935,97.14868,-0.33706033599999996
40.09937499999994,42.95396249999894,97.14239999999997,-0.339594576
40.109374999999936,42.94326249999896,97.13926,-0.34891206799999985
40.119374999999934,42.93256249999897,97.13611999999998,-0.357707926
40.12437499999993,42.937562499999,97.13711999999998,-0.360082668
40.12937499999993,42.942562499999,97.13398000000001,-0.34687846199999994
40.13937499999994,42.931862499999,97.12769999999999,-0.3306209159999999
40.149374999999935,42.921162499999014,97.12456000000002,-0.319196332
40.15437499999993,42.94686249999902,97.12556000000002,-0.31621596799999996
40.15937499999993,42.951862499998995,97.12242,-0.324664236
40.16937499999993,42.94116249999901,97.11928000000003,-0.33040556
40.179374999999936,42.930462499999,97.113,-0.32733676999999994
40.189374999999934,42.91976249999902,97.10986000000004,-0.31166661999999995
40.19437499999994,42.945462499999,97.11085999999997,-0.29078371999999997
40.19937499999994,42.95046249999898,97.10771999999996,-0.27726398799999996
40.209374999999945,42.93976249999897,97.10458,-0.27659432800000006
40.21937499999994,42.92906249999899,97.09829999999997,-0.289726324
40.22937499999994,42.918362499999006,97.09930000000001,-0.30170903399999993
40.23937499999994,42.92836249999903,97.09616,-0.3082759199999999
40.249374999999944,42.917662499999025,97.09301999999998,-0.298817538
40.25437499999994,42.92266249999905,97.08988000000001,-0.27817474799999997
40.25937499999994,42.948362499999035,97.08774,-0.25882050199999995
40.26937499999994,42.93766249999902,97.08460000000004,-0.2512177859999999
40.279374999999945,42.926962499999014,97.08146000000002,-0.26184358399999996
40.28937499999994,42.93696249999905,97.07832,-0.277362678
40.29937499999994,42.92626249999906,97.07617999999998,-0.28422548999999997
40.30937499999994,42.915562499999076,97.07303999999996,-0.279174444
40.319374999999944,42.92556249999905,97.06989999999999,-0.265166002
40.32937499999994,42.93556249999908,97.06675999999997,-0.25675923599999995
40.33937499999994,42.924862499999065,97.06775999999998,-0.25329069
40.349374999999945,42.914162499999065,97.06148,-0.25627166999999995
40.35937499999994,42.92416249999906,97.05833999999999,-0.2644912039999999
40.36937499999994,42.93416249999906,97.05520000000001,-0.26742756200000006
40.37937499999994,42.923462499999076,97.05620000000002,-0.26523246199999995
40.389374999999944,42.91276249999907,97.04992000000003,-0.257115522
40.39937499999994,42.92276249999907,97.04678000000001,-0.24361516799999994
40.40937499999994,42.932762499999065,97.04364,-0.23450052799999996
40.41937499999994,42.922062499999086,97.04463999999999,-0.227807284
40.42937499999994,42.91136249999908,97.03835999999995,-0.22717475399999995
40.43937499999994,42.92136249999908,97.03522,-0.234159336
40.44937499999994,42.931362499999075,97.03622,-0.23805997999999995
40.459374999999945,42.94136249999905,97.03307999999998,-0.23939140799999997
40.46937499999994,42.930662499999066,97.02994000000001,-0.229280202
40.47937499999994,42.91996249999909,97.02365999999998,-0.21711475600000002
40.48937499999994,42.92996249999908,97.02466000000003,-0.212465912
40.499374999999944,42.939962499999055,97.02152000000001,-0.217376774
40.50937499999994,42.94996249999909,97.01838,-0.22915139399999992
40.51937499999994,42.95996249999908,97.01210000000002,-0.23381855199999993
40.529374999999945,42.969962499999056,97.01309999999997,-0.2285546519999999
40.53937499999994,42.95926249999905,97.00995999999999,-0.21318227399999995
40.54937499999994,42.94856249999906,97.00681999999998,-0.19956091999999997
40.569374999999944,42.92716249999907,97.00468000000001,-0.19537273200000002
40.57937499999994,42.937162499999076,97.00153999999999,-0.20030002599999996
40.58937499999994,42.94716249999907,96.99839999999998,-0.21118389399999998
40.599374999999945,42.95716249999904,96.99526000000002,-0.21651571199999997
40.60937499999994,42.96716249999908,96.99626000000002,-0.210675224
40.61937499999994,42.97716249999907,96.98998000000003,-0.19772471800000002
40.639374999999944,42.955762499999054,96.98684000000002,-0.18677061999999994
40.64937499999994,42.96576249999908,96.98783999999996,-0.182552106
40.65937499999994,42.97576249999908,96.98469999999999,-0.18702838999999996
40.66937499999994,42.985762499999076,96.98155999999997,-0.19412961199999995
40.67937499999994,42.99576249999905,96.97527999999998,-0.197177852
40.69937499999994,42.97436249999909,96.97627999999999,-0.19375056799999998
40.709374999999945,42.984362499999065,96.97313999999997,-0.18772466600000004
40.71937499999994,42.994362499999056,96.97000000000001,-0.180289368
40.72937499999994,43.00436249999909,96.96686,-0.177568536
40.749374999999944,42.98296249999907,96.96472000000003,-0.17912850200000002
40.75937499999994,42.99296249999907,96.96158000000001,-0.179133736
40.76937499999994,43.002962499999065,96.95844,-0.17982940199999997
40.779374999999945,43.01296249999907,96.95943999999999,-0.176760882
40.79937499999994,42.99156249999908,96.95629999999997,-0.17297142399999996
40.80937499999994,43.001562499999075,96.95315999999995,-0.166503564
40.819374999999944,43.01156249999908,96.94687999999998,-0.159826348
40.83937499999994,42.99016249999908,96.94787999999998,-0.15423183399999998
40.849374999999945,43.00016249999906,96.94474000000001,-0.15455612800000001
40.85937499999994,43.010162499999055,96.9416,-0.1600494
40.87937499999994,42.98876249999909,96.93845999999998,-0.16493679399999994
40.889374999999944,42.99876249999907,96.93946000000003,-0.16590292599999998
40.89937499999994,43.008762499999065,96.93632000000001,-0.15805694999999997
40.91937499999994,42.987362499999065,96.93004000000002,-0.15056286800000002
40.92937499999994,42.99736249999907,96.93103999999997,-0.14493877
40.94937499999994,42.97596249999908,96.92789999999995,-0.14481524199999998
40.959374999999945,43.02736249999907,96.92475999999999,-0.14973122
40.96937499999994,43.03736249999907,96.92161999999998,-0.15085937199999996
40.98937499999994,43.01596249999908,96.92261999999998,-0.14924831999999996
40.999374999999944,43.02596249999905,96.91948000000001,-0.144997292
41.01937499999994,43.00456249999908,96.91633999999999,-0.137640684
41.029374999999945,43.01456249999906,96.91319999999997,-0.13635213199999996
41.04937499999994,43.03456249999908,96.91420000000002,-0.135925152
41.05937499999994,43.04456249999908,96.91106,-0.13775143199999998
41.07937499999994,43.02316249999907,96.90478000000003,-0.14027720799999996
41.08937499999994,43.033162499999065,96.90164000000001,-0.14042825
41.10937499999994,43.01176249999907,96.90264,-0.14047998799999997
41.11937499999994,43.063162499999066,96.89949999999999,-0.137167484
41.139374999999944,43.041762499999074,96.89635999999997,-0.134816524
41.14937499999994,43.05176249999907,96.89322,-0.13194471799999996
41.16937499999994,43.03036249999908,96.89422,-0.13070081
41.17937499999994,43.08176249999907,96.89107999999999,-0.13182195199999996
41.19937499999994,43.06036249999908,96.88794000000001,-0.13374653799999997
41.209374999999945,43.07036249999906,96.8848,-0.135247064
41.22937499999994,43.04896249999906,96.8858,-0.133161692
41.23937499999994,43.10036249999908,96.88266000000004,-0.129787078
41.25937499999994,43.07896249999906,96.87952000000003,-0.12396539999999999
41.26937499999994,43.08896249999909,96.87638000000001,-0.12160434199999996
41.28937499999994,43.10896249999906,96.87738,-0.124939446
41.30937499999994,43.087562499999066,96.87423999999999,-0.12996270199999999
41.319374999999944,43.09756249999907,96.87109999999997,-0.134179726
41.33937499999994,43.07616249999908,96.86796,-0.132774058
41.35937499999994,43.09616249999908,96.86896,-0.126158632
41.36937499999994,43.10616249999908,96.86581999999999,-0.11993336199999999
41.389374999999944,43.126162499999054,96.86268000000003,-0.11785363
