Time,Temperature,Weight,Deriv. Weight
39.65,43.31520000000001,97.07708000000001,-1.74629464
39.650625,43.31813888888889,97.07708000000001,-1.6940935520000002
39.65125,43.32107777777777,97.07332,-1.6632552239999998
39.651875,43.32401666666664,97.06855999999998,-1.5677306192000002
39.652499999999996,43.326955555555514,97.06855999999998,-1.3897215520000001
39.653124999999996,43.329894444444385,97.06756000000004,-1.2098543599999998
39.653749999999995,43.33283333333326,97.06756000000004,-1.02412884
39.654374999999995,43.33577222222214,97.06756000000004,-0.9107966399999999
39.654999999999994,43.33871111111101,97.06280000000001,-0.8611950399999998
39.65562499999999,43.34164999999989,97.06280000000001,-0.84394336
39.65624999999999,43.344588888888765,97.05803999999999,-0.8467334400000001
39.65687499999999,43.347527777777636,97.05803999999999,-0.7955729199999998
39.65749999999999,43.35046666666651,97.05803999999999,-0.7173665600000001
39.65812499999999,43.35340555555539,97.05704,-0.6018738400000001
39.65874999999999,43.35634444444426,97.05704,-0.5394249999999999
39.65937499999999,43.35928333333314,97.05227999999998,-0.5948095200000001
39.66004166666666,43.36206555555534,97.05227999999998,-0.70324464
39.660708333333325,43.36484777777754,97.05227999999998,-0.8373466799999999
39.66137499999999,43.36762999999975,97.04751999999996,-0.9101055599999999
39.66204166666666,43.37041222222195,97.05127999999998,-0.8638659999999999
39.66270833333333,43.37319444444415,97.04652000000002,-0.7519957999999999
39.663374999999995,43.375976666666354,97.04652000000002,-0.6366581199999999
39.66404166666666,43.37875888888856,97.04652000000002,-0.6156222
39.66470833333333,43.381541111110764,97.04176,-0.7374300399999999
39.665375,43.384323333332965,97.04176,-0.8947117200000001
39.666041666666665,43.387105555555166,97.04075999999999,-1.0104
39.66670833333333,43.389887777777375,97.04075999999999,-1.0043690399999998
39.667375,43.39214111111069,97.04075999999999,-0.9103886000000001
39.66804166666667,43.39439444444401,97.03600000000003,-0.8177944799999999
39.668708333333335,43.39664777777733,97.03600000000003,-0.7926450399999998
39.669375,43.398901111110646,97.03600000000003,-0.88055028
39.67014423076923,43.40076880341833,97.03124000000001,-1.0348064000000001
39.67091346153846,43.40263649572602,97.03499999999998,-1.1368215599999998
39.67168269230769,43.404504188033705,97.03499999999998,-1.1421755999999998
39.67245192307692,43.40637188034139,97.03023999999995,-1.06256396
39.67322115384615,43.40823957264908,97.03023999999995,-0.94839752
39.67399038461538,43.410107264956764,97.02548,-0.9216612799999999
39.67475961538461,43.412503846153335,97.02548,-0.94493196
39.67552884615384,43.414900427349906,97.02548,-1.0670261200000002
39.67629807692307,43.41729700854647,97.02548,-1.18250088
39.6770673076923,43.41969358974304,97.02071999999998,-1.1804289199999998
39.67783653846153,43.42209017093961,97.02071999999998,-1.08695912
39.67860576923076,43.42448675213618,97.01595999999995,-0.9021436
39.679374999999986,43.42688333333275,97.01971999999998,-0.7633709200000001
39.68020833333332,43.42903888888829,97.01971999999998,-0.7392647600000001
39.68104166666665,43.43119444444384,97.01971999999998,-0.8141986
39.681874999999984,43.43334999999938,97.01496000000002,-0.91842472
39.682708333333316,43.43550555555492,97.01496000000002,-0.9567328399999998
39.68354166666665,43.437661111110465,97.01496000000002,-0.8644467599999999
39.68437499999998,43.439816666666005,97.0102,-0.6977807999999999
39.685208333333314,43.44197222222155,97.0102,-0.5433087999999999
39.68604166666665,43.44412777777709,97.01396000000001,-0.5020904800000001
39.68687499999998,43.44628333333263,97.00919999999999,-0.5931798400000001
39.68770833333331,43.44843888888818,97.00919999999999,-0.72232524
39.688541666666644,43.450594444443716,97.00919999999999,-0.8076998800000001
39.68937499999998,43.45274999999926,97.00919999999999,-0.7777890399999998
39.690486111111085,43.45386111111037,97.00444000000003,-0.66034152
39.69159722222219,43.45497222222148,97.0082,-0.5796654000000001
39.6927083333333,43.456083333332586,97.0082,-0.60673164
39.69381944444441,43.457194444443694,97.00343999999998,-0.6974819999999999
39.694930555555516,43.4583055555548,97.00343999999998,-0.84336904
39.69604166666662,43.45941666666591,97.00343999999998,-0.9151307839999998
39.69715277777773,43.46052777777702,97.00343999999998,-0.8779026799999999
39.69826388888884,43.461638888888125,96.99867999999995,-0.8247300959999999
39.69937499999995,43.46274999999926,96.99867999999995,-0.774021712
39.70048611111106,43.46386111111035,96.99867999999995,-0.8206365600000001
39.70159722222217,43.464972222221455,96.99867999999995,-0.990156864
39.70270833333328,43.46608333333256,96.99392,-1.1913987696
39.703819444444385,43.46719444444367,96.99392,-1.3173905199999998
39.70493055555549,43.46830555555478,96.99392,-1.363511712
39.7060416666666,43.469416666665886,96.98915999999997,-1.2973980159999998
39.70715277777771,43.470527777776994,96.98915999999997,-1.2260906959999998
39.708263888888816,43.4716388888881,96.98915999999997,-1.22846028
39.70937499999992,43.47341111111033,96.98915999999997,-1.2703383119999998
39.71080357142849,43.4739896825389,96.98439999999995,-1.374127624
39.71223214285706,43.474568253967476,96.98439999999995,-1.48992052
39.71366071428563,43.47514682539605,96.98439999999995,-1.53229056
39.7150892857142,43.47572539682463,96.97964,-1.49689824
39.71651785714277,43.4763039682532,96.97588000000003,-1.3912757599999999
39.71794642857134,43.476882539681775,96.97588000000003,-1.29900112
39.71937499999991,43.47746111111035,96.97588000000003,-1.3286152799999997
39.72104166666657,43.47799444444368,96.97588000000003,-1.4207606799999999
39.72270833333324,43.478527777777,96.97112000000001,-1.5305934399999996
39.7243749999999,43.47906111111033,96.96736,-1.58155708
39.72604166666657,43.47959444444366,96.96736,-1.5490371600000001
39.72770833333323,43.48012777777699,96.96736,-1.4815937999999997
39.7293749999999,43.48066111111032,96.95883999999995,-1.4138478
39.7313749999999,43.4799411111103,96.95883999999995,-1.3801257599999999
39.7333749999999,43.47922111111028,96.95883999999995,-1.39116216
39.735374999999905,43.47850111111026,96.95507999999998,-1.4179022
39.73737499999991,43.47778111111024,96.95032000000003,-1.4172122
39.73937499999991,43.47706111111022,96.95032000000003,-1.39662264
39.74137499999991,43.476341111110195,96.94656000000002,-1.349807
39.743374999999915,43.47562111111018,96.94656000000002,-1.3043835599999998
39.74537499999992,43.47490111111016,96.94656000000002,-1.2874687200000001
39.74737499999992,43.47531444444348,96.94279999999999,-1.2797969879999997
39.74937499999992,43.47572777777679,96.93803999999997,-1.2965407479999997
39.751374999999925,43.47614111111011,96.93428000000002,-1.3095652999999998
39.75337499999993,43.47655444444342,96.93428000000002,-1.3008146879999998
39.75537499999993,43.47696777777674,96.93051999999999,-1.2755534199999998
39.75737499999993,43.477381111110056,96.93051999999999,-1.2225293000000002
39.759374999999935,43.477794444443376,96.92675999999997,-1.179481516
39.76187499999993,43.47632777777671,96.92675999999997,-1.1644293199999998
39.76437499999993,43.474861111110044,96.91823999999998,-1.180663444
39.76687499999993,43.47339444444338,96.91447999999997,-1.2116887639999998
39.769374999999926,43.47192777777671,96.91447999999997,-1.211777652
39.77187499999992,43.47046111111005,96.91071999999996,-1.170831912
39.77437499999992,43.47058111111007,96.91071999999996,-1.1040702359999996
39.77687499999992,43.47070111111009,96.90695999999998,-1.0588204799999998
39.779374999999916,43.47082111111011,96.90319999999997,-1.0418007919999999
39.78270833333325,43.4678077777768,96.90319999999997,-1.0459979
39.78604166666658,43.46479444444349,96.89943999999996,-1.0581992040000001
39.78937499999991,43.46416111111016,96.89567999999998,-1.0526485079999999
39.79270833333324,43.463527777776825,96.89567999999998,-1.039483556
39.79604166666657,43.46289444444349,96.89191999999997,-1.0109171119999998
39.7993749999999,43.46226111111016,96.8834,-0.982498088
39.801874999999896,43.462381111110176,96.87964000000002,-0.958334316
39.804374999999894,43.4625011111102,96.87964000000002,-0.9474422927999999
39.80687499999989,43.46262111111022,96.87588000000001,-0.9524509859999999
39.80937499999989,43.46274111111024,96.87212,-0.9523379480000002
39.81270833333323,43.459727777776905,96.86836000000002,-0.9592106984
39.81604166666656,43.45909444444357,96.86836000000002,-0.9389214459999999
39.81937499999989,43.45846111111024,96.86460000000001,-0.911265288
39.82437499999989,43.451561111110216,96.86084,-0.8849566416000001
39.82937499999989,43.44466111111019,96.85708000000002,-0.8575925599999998
39.83270833333322,43.444027777776896,96.85332000000001,-0.853442332
39.83604166666655,43.44339444444356,96.84956,-0.8506296199999999
39.83937499999988,43.44276111111023,96.84580000000003,-0.8546902516
39.84270833333322,43.442127777776875,96.85055999999999,-0.8498170443999999
39.84604166666655,43.445461111110205,96.84679999999997,-0.8182817840000001
39.84937499999988,43.448794444443536,96.84303999999995,-0.77831536
39.85437499999988,43.445861111110204,96.83927999999999,-0.74412918
39.85937499999988,43.43896111111018,96.83551999999996,-0.73588724
39.86270833333321,43.43832777777685,96.83175999999995,-0.754432228
39.86604166666654,43.437694444443515,96.82799999999999,-0.7764566639999999
39.86937499999987,43.43706111111018,96.82423999999996,-0.775433484
39.87437499999987,43.43412777777682,96.82047999999995,-0.7518703679999998
39.879374999999875,43.43119444444347,96.81671999999999,-0.7200438719999999
39.88437499999988,43.42826111111011,96.81295999999996,-0.683261056
39.88937499999988,43.425327777776786,96.80919999999995,-0.672569084
39.89437499999988,43.42239444444343,96.80543999999998,-0.6815276039999999
39.899374999999885,43.419461111110074,96.80167999999996,-0.695631584
39.902708333333216,43.422794444443404,96.79791999999995,-0.7016088039999999
39.906041666666546,43.426127777776735,96.79892000000001,-0.679824096
39.909374999999876,43.429461111110065,96.79515999999998,-0.6500946080000001
39.91437499999988,43.426527777776705,96.79139999999997,-0.62758768
39.91937499999988,43.423594444443346,96.78764000000001,-0.61449202
39.924374999999884,43.42066111110999,96.78387999999998,-0.6041659839999999
39.92937499999989,43.41772777777663,96.78011999999997,-0.607213672
39.93437499999989,43.414794444443274,96.77636000000001,-0.6124726079999998
39.93937499999989,43.41186111110992,96.77259999999998,-0.6116092879999999
39.94937499999989,43.39806111110994,96.77359999999999,-0.5956971919999999
39.95437499999989,43.40306111110994,96.76984000000003,-0.5727895439999999
39.959374999999895,43.40012777777658,96.76608,-0.5579852279999999
39.96437499999989,43.39719444444325,96.76231999999999,-0.557736172
39.96937499999989,43.3942611111099,96.75856000000003,-0.5723382039999999
39.974374999999895,43.3992611111099,96.75103999999999,-0.5840034239999999
39.9793749999999,43.4042611111099,96.74728000000003,-0.5842927
39.9843749999999,43.40132777777658,96.74827999999997,-0.567160472
39.9893749999999,43.39839444444322,96.74451999999994,-0.530335784
39.99937499999991,43.376661111109854,96.74075999999998,-0.49433901599999996
40.00437499999991,43.38166111110982,96.73699999999997,-0.48487095999999996
40.00937499999991,43.386661111109824,96.73324,-0.500505496
40.014374999999916,43.391661111109826,96.72947999999998,-0.532984284
40.01937499999992,43.39666111110983,96.72672000000001,-0.5492657079999999
40.02937499999992,43.382861111109825,96.72296,-0.535994824
40.034374999999926,43.38786111110983,96.71919999999999,-0.501605544
40.03937499999993,43.39286111110983,96.71544000000002,-0.469277392
40.04937499999993,43.37906111110985,96.71168,-0.45670489599999997
40.05437499999992,43.38406111110988,96.71268,-0.46652086000000015
40.059374999999925,43.38906111110988,96.70516000000002,-0.485234168
40.06937499999993,43.37526111110987,96.7014,-0.491909532
40.07437499999993,43.380261111109874,96.69764000000004,-0.4785412480000001
40.079374999999935,43.38526111110988,96.69388000000002,-0.45138817599999986
40.08937499999993,43.371461111109895,96.69487999999996,-0.42846804400000005
40.094374999999935,43.3764611111099,96.69112,-0.41270802399999995
40.09937499999994,43.3814611111099,96.68359999999996,-0.415345184
40.109374999999936,43.367661111109925,96.67984,-0.42586411199999985
40.119374999999934,43.35386111110994,96.67607999999998,-0.43569208400000004
40.12437499999993,43.358861111109974,96.67707999999999,-0.43820651200000005
40.12937499999993,43.36386111110997,96.67332000000002,-0.422749908
40.13937499999994,43.350061111109966,96.66579999999998,-0.4037867439999999
40.149374999999935,43.336261111109984,96.66204000000002,-0.390461488
40.15437499999993,43.365061111109995,96.66304000000002,-0.38674171199999996
40.15937499999993,43.37006111110996,96.65928000000001,-0.396272624
40.16937499999993,43.35626111110998,96.65552000000004,-0.40257603999999997
40.179374999999936,43.34246111110998,96.64800000000001,-0.39882618
40.189374999999934,43.328661111109994,96.64424000000004,-0.38053807999999995
40.19437499999994,43.35746111110998,96.64523999999997,-0.35619248
40.19937499999994,43.362461111109944,96.64147999999996,-0.340500392
40.209374999999945,43.348661111109934,96.63771999999999,-0.339601952
40.21937499999994,43.33486111110996,96.63019999999996,-0.35470641599999997
40.22937499999994,43.32106111110998,96.63120000000002,-0.36837955599999994
40.23937499999994,43.33106111111001,96.62743999999999,-0.3758422799999999
40.249374999999944,43.31726111111,96.62367999999998,-0.36477109200000013
40.25437499999994,43.32226111111003,96.61992000000002,-0.3407812319999999
40.25937499999994,43.35106111111001,96.61716,-0.318315268
40.26937499999994,43.337261111109996,96.61340000000004,-0.30929932399999993
40.279374999999945,43.32346111110999,96.60964000000001,-0.3214662559999999
40.28937499999994,43.33346111111002,96.60588,-0.33928685199999997
40.29937499999994,43.319661111110044,96.60311999999998,-0.34706465999999997
40.30937499999994,43.30586111111006,96.59935999999996,-0.34112149599999997
40.319374999999944,43.31586111111003,96.59559999999999,-0.324769268
40.32937499999994,43.325861111110065,96.59183999999998,-0.314944624
40.33937499999994,43.31206111111005,96.59283999999998,-0.31075446
40.349374999999945,43.298261111110044,96.58532,-0.31395677999999994
40.35937499999994,43.30826111111004,96.58155999999998,-0.323297336
40.36937499999994,43.31826111111004,96.57780000000001,-0.3265063080000001
40.37937499999994,43.30446111111006,96.57880000000002,-0.323836908
40.389374999999944,43.290661111110055,96.57128000000003,-0.31437394799999996
40.39937499999994,43.30066111111005,96.56752000000002,-0.29859751199999995
40.40937499999994,43.31066111111005,96.56376,-0.287947752
40.41937499999994,43.29686111111007,96.56475999999999,-0.279962056
40.42937499999994,43.28306111111006,96.55723999999995,-0.27896403599999997
40.43937499999994,43.293061111110056,96.55348,-0.286960024
40.44937499999994,43.303061111110054,96.55448,-0.29147731999999993
40.459374999999945,43.31306111111003,96.55071999999998,-0.29314367199999997
40.46937499999994,43.29926111111005,96.54696000000001,-0.281400068
40.47937499999994,43.28546111111007,96.53943999999997,-0.267096304
40.48937499999994,43.295461111110065,96.54044000000003,-0.261409208
40.499374999999944,43.305461111110034,96.53668000000002,-0.26686771600000003
40.50937499999994,43.31546111111007,96.53292,-0.28042979599999995
40.51937499999994,43.325461111110066,96.52540000000002,-0.28575396799999997
40.529374999999945,43.335461111110035,96.52639999999995,-0.2795383679999999
40.53937499999994,43.321661111110025,96.52264,-0.261510716
40.54937499999994,43.30786111111004,96.51887999999997,-0.24552027999999998
40.569374999999944,43.28026111111006,96.51612000000002,-0.240480088
40.57937499999994,43.290261111110055,96.51236,-0.246053484
40.58937499999994,43.30026111111005,96.50859999999997,-0.258633796
40.599374999999945,43.31026111111002,96.50484000000002,-0.264820408
40.60937499999994,43.32026111111006,96.50584000000002,-0.257976016
40.61937499999994,43.330261111110055,96.49832000000004,-0.242745212
40.639374999999944,43.302661111110034,96.49456000000002,-0.22981907999999995
40.64937499999994,43.31266111111006,96.49555999999995,-0.224763504
40.65937499999994,43.32266111111006,96.49179999999998,-0.22989735999999997
40.66937499999994,43.332661111110056,96.48803999999997,-0.23811600799999993
40.67937499999994,43.34266111111003,96.48051999999998,-0.24158026800000004
40.69937499999994,43.31506111111007,96.48151999999999,-0.23743341199999998
40.709374999999945,43.32506111111004,96.47775999999998,-0.23025164400000003
40.71937499999994,43.335061111110036,96.474,-0.22144261199999998
40.72937499999994,43.34506111111007,96.47023999999999,-0.21818622399999998
40.749374999999944,43.31746111111005,96.46748000000004,-0.21997986800000002
40.75937499999994,43.32746111111005,96.46372000000001,-0.21985372399999997
40.76937499999994,43.337461111110045,96.45996,-0.22049786799999993
40.779374999999945,43.34746111111005,96.46095999999999,-0.216726888
40.79937499999994,43.31986111111006,96.45719999999997,-0.21216571599999998
40.80937499999994,43.329861111110056,96.45343999999996,-0.20452667600000002
40.819374999999944,43.33986111111006,96.44591999999997,-0.19665013199999998
40.83937499999994,43.31226111111006,96.44691999999998,-0.190054256
40.849374999999945,43.32226111111004,96.44316,-0.19036125200000004
40.85937499999994,43.332261111110036,96.43939999999999,-0.19670380000000004
40.87937499999994,43.30466111111007,96.43563999999998,-0.20226829599999996
40.889374999999944,43.31466111111004,96.43664000000003,-0.20322438399999998
40.89937499999994,43.32466111111004,96.43288000000001,-0.1938914
40.91937499999994,43.29706111111005,96.42536000000003,-0.18503251200000004
40.92937499999994,43.30706111111005,96.42635999999997,-0.17842528
40.94937499999994,43.27946111111006,96.42259999999995,-0.178242728
40.959374999999945,43.33706111111005,96.41883999999999,-0.18393537999999998
40.96937499999994,43.34706111111005,96.41507999999996,-0.18513594799999997
40.98937499999994,43.31946111111006,96.41607999999997,-0.18312387999999996
40.999374999999944,43.32946111111003,96.41232000000001,-0.17809462800000003
41.01937499999994,43.30186111111007,96.40856,-0.16940985600000003
41.029374999999945,43.31186111111004,96.40479999999997,-0.16785978799999995
41.04937499999994,43.33186111111007,96.40580000000003,-0.167316868
41.05937499999994,43.34186111111007,96.40204000000001,-0.16935828799999997
41.07937499999994,43.31426111111005,96.39452000000003,-0.17222717199999996
41.08937499999994,43.32426111111005,96.39076000000001,-0.17229160000000002
41.10937499999994,43.296661111110055,96.39176,-0.17222659199999998
41.11937499999994,43.35426111111005,96.38799999999999,-0.168294956
41.139374999999944,43.326661111110056,96.38423999999996,-0.165538516
41.14937499999994,43.336661111110054,96.38048,-0.16220611199999999
41.16937499999994,43.30906111111006,96.38148000000001,-0.16072524
41.17937499999994,43.366661111110055,96.37771999999998,-0.16192096799999997
41.19937499999994,43.33906111111006,96.37396000000003,-0.16399739199999996
41.209374999999945,43.34906111111003,96.37020000000001,-0.165557376
41.22937499999994,43.32146111111004,96.37120000000002,-0.163038128
41.23937499999994,43.37906111111006,96.36744000000004,-0.15908065200000002
41.25937499999994,43.35146111111004,96.36368000000003,-0.1522963
41.26937499999994,43.361461111110074,96.35992000000002,-0.14951382799999996
41.28937499999994,43.38146111111004,96.36092000000001,-0.15327586400000004
41.30937499999994,43.35386111111005,96.35715999999998,-0.15899376799999998
41.319374999999944,43.363861111110054,96.35339999999997,-0.16378528399999998
41.33937499999994,43.336261111110055,96.34964,-0.162084372
41.35937499999994,43.35626111111006,96.35064,-0.15432448800000004
41.36937499999994,43.366261111110056,96.34687999999998,-0.147029408
