Time,Temperature,Weight,Deriv. Weight
39.65,42.914800000000014,97.41092000000002,-1.54288936
39.650625,42.91748611111111,97.41092000000002,-1.4999813480000004
39.65125,42.920172222222206,97.40768,-1.475055576
39.651875,42.92285833333331,97.40343999999997,-1.3960438208000003
39.652499999999996,42.925544444444405,97.40343999999997,-1.244489348
39.653124999999996,42.92823055555551,97.40244000000003,-1.08959864
39.653749999999995,42.930916666666604,97.40244000000003,-0.9287041600000001
39.654374999999995,42.9336027777777,97.40244000000003,-0.83067036
39.654999999999994,42.936288888888804,97.39820000000002,-0.7894459599999999
39.65562499999999,42.9389749999999,97.39820000000002,-0.7776636400000001
39.65624999999999,42.941661111110996,97.39395999999999,-0.7829455600000002
39.65687499999999,42.9443472222221,97.39395999999999,-0.7398980799999999
39.65749999999999,42.947033333333195,97.39395999999999,-0.6710574400000001
39.65812499999999,42.94971944444429,97.39296,-0.5685111600000001
39.65874999999999,42.952405555555394,97.39296,-0.512138
39.65937499999999,42.95509166666649,97.38871999999998,-0.55973448
39.66004166666666,42.957642777777586,97.38871999999998,-0.65602136
39.660708333333325,42.96019388888868,97.38871999999998,-0.77506732
39.66137499999999,42.96274499999977,97.38447999999997,-0.8395384400000001
39.66204166666666,42.96529611111087,97.38771999999997,-0.798034
39.66270833333333,42.96784722222196,97.38348000000002,-0.6974971999999999
39.663374999999995,42.97039833333306,97.38348000000002,-0.59459688
39.66404166666666,42.97294944444415,97.38348000000002,-0.5757928000000001
39.66470833333333,42.97550055555524,97.37924,-0.68321796
39.665375,42.97805166666634,97.37924,-0.8221992800000001
39.666041666666665,42.980602777777435,97.37823999999999,-0.9235470000000001
39.66670833333333,42.98315388888852,97.37823999999999,-0.91701996
39.667375,42.985233888888516,97.37823999999999,-0.8328904000000001
39.66804166666667,42.9873138888885,97.37400000000004,-0.74988352
39.668708333333335,42.989393888888486,97.37400000000004,-0.7272919600000001
39.669375,42.99147388888848,97.37400000000004,-0.8045897200000001
39.67014423076923,42.99322158119617,97.36976000000001,-0.9400286
39.67091346153846,42.99496927350385,97.37299999999998,-1.0299454399999999
39.67168269230769,42.99671696581154,97.37299999999998,-1.0336204
39.67245192307692,42.998464658119225,97.36875999999997,-0.9622840400000001
39.67322115384615,43.00021235042691,97.36875999999997,-0.8602954800000001
39.67399038461538,43.001960042734595,97.36452,-0.83487172
39.67475961538461,43.00417884615339,97.36452,-0.8554680400000001
39.67552884615384,43.00639764957218,97.36452,-0.9630978800000002
39.67629807692307,43.00861645299098,97.36452,-1.06548112
39.6770673076923,43.01083525640977,97.36027999999997,-1.06391408
39.67783653846153,43.01305405982856,97.36027999999997,-0.9807558799999999
39.67860576923076,43.015272863247354,97.35603999999996,-0.8173654000000001
39.679374999999986,43.017491666666146,97.35927999999997,-0.6946440800000002
39.68020833333332,43.01950277777725,97.35927999999997,-0.6740952400000001
39.68104166666665,43.02151388888834,97.35927999999997,-0.7414194000000001
39.681874999999984,43.023524999999445,97.35504000000002,-0.83464128
39.682708333333316,43.02553611111055,97.35504000000002,-0.8694331599999999
39.68354166666665,43.02754722222164,97.35504000000002,-0.78800624
39.68437499999998,43.029558333332744,97.35079999999999,-0.6404871999999999
39.685208333333314,43.03156944444384,97.35079999999999,-0.5039422
39.68604166666665,43.03358055555494,97.35404000000001,-0.46753752000000015
39.68687499999998,43.03559166666604,97.34979999999999,-0.5485461600000001
39.68770833333331,43.03760277777714,97.34979999999999,-0.66243476
39.688541666666644,43.03961388888824,97.34979999999999,-0.73681712
39.68937499999998,43.041624999999335,97.34979999999999,-0.7089389599999998
39.690486111111085,43.04273611111044,97.34556000000003,-0.6038164800000001
39.69159722222219,43.04384722222155,97.3488,-0.5315446
39.6927083333333,43.04495833333266,97.3488,-0.55451636
39.69381944444441,43.046069444443766,97.34455999999997,-0.634393
39.694930555555516,43.047180555554874,97.34455999999997,-0.76233796
39.69604166666662,43.04829166666598,97.34455999999997,-0.8251300159999998
39.69715277777773,43.04940277777709,97.34455999999997,-0.79180732
39.69826388888884,43.0505138888882,97.34031999999996,-0.743657104
39.69937499999995,43.05162499999934,97.34031999999996,-0.697765688
39.70048611111106,43.05273611111042,97.34031999999996,-0.7371864400000001
39.70159722222217,43.05384722222153,97.34031999999996,-0.8847274360000001
39.70270833333328,43.054958333332635,97.33608,-1.0603629504
39.703819444444385,43.05606944444374,97.33608,-1.17031398
39.70493055555549,43.05718055555485,97.33608,-1.210237188
39.7060416666666,43.05829166666596,97.33183999999999,-1.151355184
39.70715277777771,43.059402777777066,97.33183999999999,-1.0875070039999999
39.708263888888816,43.060513888888174,97.33183999999999,-1.0876232200000002
39.70937499999992,43.06221388888818,97.33183999999999,-1.123149088
39.71080357142849,43.06288531745962,97.32759999999996,-1.214045676
39.71223214285706,43.06355674603105,97.32759999999996,-1.3157454800000001
39.71366071428563,43.064228174602476,97.32759999999996,-1.3528224400000002
39.7150892857142,43.064899603173906,97.32336,-1.32055376
39.71651785714277,43.06557103174534,97.32012000000003,-1.22618824
39.71794642857134,43.06624246031677,97.32012000000003,-1.14360588
39.71937499999991,43.0669138888882,97.32012000000003,-1.16858372
39.72104166666657,43.06757103174534,97.32012000000003,-1.2491123199999998
39.72270833333324,43.06822817460248,97.31588,-1.3454635599999998
39.7243749999999,43.06888531745962,97.31263999999999,-1.3900499200000003
39.72604166666657,43.069542460316754,97.31263999999999,-1.36060684
39.72770833333323,43.07019960317389,97.31263999999999,-1.3000201999999998
39.7293749999999,43.070856746031026,97.30515999999996,-1.2393852000000003
39.7313749999999,43.070433888888154,97.30515999999996,-1.20940924
39.7333749999999,43.07001103174528,97.30515999999996,-1.21911184
39.735374999999905,43.0695881746024,97.30192,-1.2424698000000003
39.73737499999991,43.06916531745953,97.29768000000003,-1.2413768
39.73937499999991,43.068742460316656,97.29768000000003,-1.2227143600000003
39.74137499999991,43.068319603173784,97.29444000000001,-1.180846
39.743374999999915,43.067896746030904,97.29444000000001,-1.1399824399999998
39.74537499999992,43.06747388888803,97.29444000000001,-1.1240862800000002
39.74737499999992,43.06806055555468,97.2912,-1.1163447119999999
39.74937499999992,43.06864722222134,97.28695999999998,-1.1306699519999999
39.751374999999925,43.069233888887986,97.28372,-1.1419212
39.75337499999993,43.06982055555464,97.28372,-1.1341735119999998
39.75537499999993,43.07040722222129,97.28048,-1.1118160799999999
39.75737499999993,43.07099388888795,97.28048,-1.0645572000000003
39.759374999999935,43.0715805555546,97.27723999999998,-1.0260143840000002
39.76187499999993,43.070547222221265,97.27723999999998,-1.0121306799999998
39.76437499999993,43.06951388888793,97.26975999999999,-1.0261106560000002
39.76687499999993,43.0684805555546,97.26651999999997,-1.0533493360000001
39.769374999999926,43.06744722222127,97.26651999999997,-1.053264648
39.77187499999992,43.066413888887936,97.26327999999995,-1.0166928880000001
39.77437499999992,43.06679388888795,97.26327999999995,-0.957260664
39.77687499999992,43.06717388888797,97.26003999999999,-0.91670552
39.779374999999916,43.067553888887986,97.25679999999997,-0.9013310080000001
39.78270833333325,43.06523388888801,97.25679999999997,-0.9051545999999999
39.78604166666658,43.062913888888026,97.25355999999995,-0.9160218960000001
39.78937499999991,43.06271388888803,97.25031999999999,-0.911269192
39.79270833333324,43.06251388888803,97.25031999999999,-0.8996513439999999
39.79604166666657,43.06231388888803,97.24707999999997,-0.874226688
39.7993749999999,43.06211388888803,97.2396,-0.8489081120000002
39.801874999999896,43.06249388888805,97.23636000000002,-0.827328584
39.804374999999894,43.06287388888806,97.23636000000002,-0.8173532271999999
39.80687499999989,43.063253888888084,97.23312000000001,-0.8215631640000001
39.80937499999989,43.0636338888881,97.22988,-0.8213617520000002
39.81270833333323,43.061313888888094,97.22664000000003,-0.8274513616000001
39.81604166666656,43.061113888888094,97.22664000000003,-0.8098622040000001
39.81937499999989,43.060913888888095,97.22340000000001,-0.7854519120000002
39.82437499999989,43.05531388888808,97.22015999999999,-0.7620087984000001
39.82937499999989,43.049713888888064,97.21692000000003,-0.73756044
39.83270833333322,43.04951388888809,97.21368000000001,-0.7337639680000001
39.83604166666655,43.04931388888809,97.21043999999999,-0.73165388
39.83937499999988,43.049113888888094,97.20720000000003,-0.7356529384
39.84270833333322,43.048913888888066,97.21143999999998,-0.7315811656000001
39.84604166666655,43.052247222221396,97.20819999999998,-0.7036798160000002
39.84937499999988,43.05558055555473,97.20495999999996,-0.6680826400000001
39.85437499999988,43.05351388888806,97.20171999999998,-0.6376953200000001
39.85937499999988,43.04791388888805,97.19847999999998,-0.6304317600000001
39.86270833333321,43.04771388888805,97.19523999999996,-0.6470884720000001
39.86604166666654,43.04751388888805,97.19199999999998,-0.6669699360000001
39.86937499999987,43.04731388888805,97.18875999999997,-0.6663266160000001
39.87437499999987,43.04524722222136,97.18551999999995,-0.645526832
39.879374999999875,43.04318055555467,97.18227999999998,-0.617217928
39.88437499999988,43.041113888887985,97.17903999999997,-0.5846323440000001
39.88937499999988,43.03904722222133,97.17579999999995,-0.5751180160000001
39.89437499999988,43.03698055555464,97.17255999999999,-0.583100496
39.899374999999885,43.03491388888795,97.16931999999997,-0.5957040160000001
39.902708333333216,43.03824722222128,97.16607999999995,-0.601065296
39.906041666666546,43.04158055555461,97.16708,-0.5819993040000001
39.909374999999876,43.04491388888794,97.16384,-0.5557635920000001
39.91437499999988,43.042847222221255,97.16059999999997,-0.53579832
39.91937499999988,43.04078055555457,97.15736,-0.52419948
39.924374999999884,43.03871388888788,97.15411999999999,-0.5152026160000001
39.92937499999989,43.03664722222119,97.15087999999997,-0.5181131280000001
39.93437499999989,43.034580555554506,97.14764,-0.5229775919999999
39.93937499999989,43.03251388888781,97.14439999999999,-0.522442912
39.94937499999989,43.02131388888783,97.1454,-0.508545608
39.95437499999989,43.026313888887834,97.14216000000002,-0.48826905600000003
39.959374999999895,43.02424722222115,97.13892000000001,-0.474990472
39.96437499999989,43.022180555554485,97.13568,-0.474648128
39.96937499999989,43.02011388888779,97.13244000000002,-0.48773789599999995
39.974374999999895,43.025113888887795,97.12595999999999,-0.498644176
39.9793749999999,43.0301138888878,97.12272000000002,-0.4993598000000001
39.9843749999999,43.02804722222114,97.12371999999996,-0.484323328
39.9893749999999,43.025980555554455,97.12047999999996,-0.45175681600000006
39.99937499999991,43.00771388888776,97.11723999999998,-0.419879384
40.00437499999991,43.01271388888773,97.11399999999996,-0.41154004
40.00937499999991,43.017713888887734,97.11076,-0.4254099040000001
40.014374999999916,43.022713888887736,97.10751999999998,-0.45420381600000004
40.01937499999992,43.02771388888774,97.10528000000002,-0.468806992
40.02937499999992,43.01651388888773,97.10204,-0.45721877600000005
40.034374999999926,43.02151388888773,97.09879999999998,-0.426874056
40.03937499999993,43.026513888887735,97.09556000000002,-0.39826140800000004
40.04937499999993,43.01531388888775,97.09232,-0.387178504
40.05437499999992,43.02031388888778,97.09332,-0.3960876400000002
40.059374999999925,43.02531388888778,97.08684000000002,-0.4129090320000001
40.06937499999993,43.01411388888778,97.0836,-0.4190857680000001
40.07437499999993,43.01911388888778,97.08036000000004,-0.4073949520000001
40.079374999999935,43.02411388888778,97.07712000000002,-0.3834202239999999
40.08937499999993,43.0129138888878,97.07811999999997,-0.3631290560000001
40.094374999999935,43.017913888887804,97.07488,-0.3492615760000001
40.09937499999994,43.02291388888781,97.06839999999997,-0.3518124160000001
40.109374999999936,43.011713888887826,97.06515999999999,-0.3613236879999999
40.119374999999934,43.00051388888784,97.06191999999999,-0.3702860160000001
40.12437499999993,43.00551388888786,97.06291999999999,-0.37268328800000006
40.12937499999993,43.01051388888787,97.05968000000001,-0.359115792
40.13937499999994,42.99931388888786,97.05319999999999,-0.34242185599999997
40.149374999999935,42.98811388888788,97.04996000000001,-0.33069071200000005
40.15437499999993,43.014313888887884,97.05096000000002,-0.32759108800000003
40.15937499999993,43.01931388888786,97.04772,-0.336213976
40.16937499999993,43.00811388888788,97.04448000000004,-0.34204596000000004
40.179374999999936,42.99691388888787,97.038,-0.33886731999999997
40.189374999999934,42.98571388888789,97.03476000000003,-0.32277491999999997
40.19437499999994,43.01191388888787,97.03575999999998,-0.30133352
40.19937499999994,43.01691388888784,97.03251999999996,-0.28746340800000003
40.209374999999945,43.00571388888784,97.02928,-0.286756848
40.21937499999994,42.99451388888785,97.02279999999996,-0.300206984
40.22937499999994,42.98331388888787,97.02380000000001,-0.312462344
40.23937499999994,42.9933138888879,97.02056,-0.31917372
40.249374999999944,42.982113888887895,97.01731999999998,-0.30945520800000004
40.25437499999994,42.98711388888792,97.01408,-0.288272568
40.25937499999994,43.0133138888879,97.01184,-0.26841643200000004
40.26937499999994,43.00211388888789,97.00860000000003,-0.26058577599999994
40.279374999999945,42.99091388888788,97.00536000000002,-0.27146014399999996
40.28937499999994,43.000913888887915,97.00212,-0.28735044800000004
40.29937499999994,42.98971388888793,96.99987999999998,-0.29436084
40.30937499999994,42.978513888887946,96.99663999999996,-0.2891659040000001
40.319374999999944,42.98851388888792,96.9934,-0.27477943200000005
40.32937499999994,42.99851388888795,96.99015999999997,-0.26614397600000006
40.33937499999994,42.98731388888794,96.99115999999998,-0.26255904
40.349374999999945,42.97611388888793,96.98468,-0.26557571999999996
40.35937499999994,42.98611388888793,96.98143999999998,-0.27397606399999996
40.36937499999994,42.996113888887926,96.97820000000002,-0.2769563920000001
40.37937499999994,42.984913888887945,96.97920000000002,-0.27468479200000007
40.389374999999944,42.973713888887936,96.97272000000004,-0.266350752
40.39937499999994,42.983713888887934,96.96948000000002,-0.252483288
40.40937499999994,42.99371388888793,96.96624,-0.24312104799999998
40.41937499999994,42.98251388888795,96.96723999999999,-0.23621934400000005
40.42937499999994,42.97131388888795,96.96075999999996,-0.235527864
40.43937499999994,42.98131388888795,96.95751999999999,-0.242675576
40.44937499999994,42.991313888887944,96.95852,-0.24667568
40.459374999999945,43.00131388888792,96.95527999999997,-0.24806112800000002
40.46937499999994,42.99011388888793,96.95204000000001,-0.237686632
40.47937499999994,42.97891388888795,96.94555999999999,-0.22517629600000005
40.48937499999994,42.98891388888795,96.94656000000003,-0.22035999200000003
40.499374999999944,42.99891388888793,96.94332000000001,-0.22535918400000005
40.50937499999994,43.00891388888795,96.94008,-0.237422104
40.51937499999994,43.01891388888795,96.93360000000001,-0.24219523199999995
40.529374999999945,43.02891388888793,96.93459999999996,-0.23677783199999997
40.53937499999994,43.01771388888791,96.93135999999998,-0.220977184
40.54937499999994,43.00651388888793,96.92811999999998,-0.20697372000000003
40.569374999999944,42.98411388888794,96.92588,-0.20264811200000002
40.57937499999994,42.99411388888794,96.92264,-0.207679616
40.58937499999994,43.004113888887936,96.91939999999998,-0.21883710400000006
40.599374999999945,43.01411388888791,96.91616,-0.22430679200000003
40.60937499999994,43.02411388888794,96.91716000000001,-0.21830438400000002
40.61937499999994,43.03411388888794,96.91068000000003,-0.20498608800000007
40.639374999999944,43.01171388888792,96.90744000000001,-0.19371391999999998
40.64937499999994,43.02171388888795,96.90843999999996,-0.18936039600000004
40.65937499999994,43.03171388888795,96.9052,-0.19394273999999997
40.66937499999994,43.04171388888795,96.90195999999997,-0.20122419199999997
40.67937499999994,43.05171388888792,96.89547999999999,-0.20433953200000005
40.69937499999994,43.029313888887955,96.89648,-0.20079618800000001
40.709374999999945,43.03931388888793,96.89323999999998,-0.19458385600000005
40.71937499999994,43.04931388888793,96.89000000000001,-0.18692698800000002
40.72937499999994,43.05931388888796,96.88676,-0.184119776
40.749374999999944,43.03691388888794,96.88452000000002,-0.18571743200000007
40.75937499999994,43.046913888887936,96.88128000000002,-0.18570147600000003
40.76937499999994,43.056913888887934,96.87804,-0.186388832
40.779374999999945,43.06691388888794,96.87903999999999,-0.183207012
40.79937499999994,43.04451388888794,96.87579999999997,-0.17929308400000002
40.80937499999994,43.05451388888794,96.87255999999995,-0.17263632400000006
40.819374999999944,43.064513888887944,96.86607999999997,-0.16576566799999998
40.83937499999994,43.042113888887954,96.86707999999997,-0.160009644
40.849374999999945,43.052113888887924,96.86384000000001,-0.16033114800000003
40.85937499999994,43.06211388888792,96.86059999999999,-0.16596140000000004
40.87937499999994,43.03971388888796,96.85735999999997,-0.17095800399999994
40.889374999999944,43.049713888887936,96.85836000000003,-0.17192251600000003
40.89937499999994,43.059713888887934,96.85512000000001,-0.1638367
40.91937499999994,43.03731388888794,96.84864000000003,-0.156122488
40.92937499999994,43.04731388888794,96.84963999999997,-0.15033982
40.94937499999994,43.024913888887944,96.84639999999996,-0.15020677200000002
40.959374999999945,43.07731388888794,96.84315999999998,-0.15524802000000004
40.96937499999994,43.08731388888794,96.83991999999998,-0.156387852
40.98937499999994,43.06491388888794,96.84091999999998,-0.15471211999999998
40.999374999999944,43.07491388888792,96.83768,-0.15033557200000003
41.01937499999994,43.05251388888795,96.83443999999999,-0.142764744
41.029374999999945,43.06251388888793,96.83119999999998,-0.141434012
41.04937499999994,43.08251388888795,96.83220000000003,-0.14098833200000005
41.05937499999994,43.09251388888795,96.82896000000001,-0.142849312
41.07937499999994,43.07011388888793,96.82248000000003,-0.145430428
41.08937499999994,43.08011388888793,96.81924000000001,-0.14556750000000004
41.10937499999994,43.057713888887946,96.82024,-0.14560040800000001
41.11937499999994,43.11011388888793,96.81699999999998,-0.142188044
41.139374999999944,43.08771388888795,96.81375999999997,-0.139771684
41.14937499999994,43.097713888887945,96.81052,-0.136825588
41.16937499999994,43.07531388888795,96.81152,-0.13554346
41.17937499999994,43.127713888887946,96.80828,-0.136676632
41.19937499999994,43.10531388888795,96.80504000000002,-0.13862570800000001
41.209374999999945,43.115313888887925,96.8018,-0.14013582400000002
41.22937499999994,43.09291388888793,96.8028,-0.13798047200000002
41.23937499999994,43.14531388888795,96.79956000000004,-0.13451184800000002
41.25937499999994,43.12291388888793,96.79632000000002,-0.1285349
41.26937499999994,43.132913888887956,96.79308,-0.126105872
41.28937499999994,43.15291388888793,96.79408,-0.12950983600000004
41.30937499999994,43.13051388888793,96.79083999999999,-0.134645132
41.319374999999944,43.14051388888794,96.78759999999997,-0.13895481600000004
41.33937499999994,43.11811388888795,96.78435999999999,-0.137501528
41.35937499999994,43.13811388888795,96.78536,-0.13070151200000002
41.36937499999994,43.14811388888795,96.78211999999999,-0.124303692
41.389374999999944,43.168113888887916,96.77888000000002,-0.12216508000000002
41.39937499999994,43.17811388888795,96.77564000000001,-0.12288834400000001
