Time,Temperature,Weight,Deriv. Weight
39.65,43.145800000000015,97.21832000000002,-1.6602385599999998
39.650625,43.148631944444446,97.21832000000002,-1.6119691580000002
39.65125,43.15146388888888,97.21477999999999,-1.5836322959999998
39.651875,43.15429583333331,97.21023999999997,-1.4950938968000003
39.652499999999996,43.15712777777774,97.21023999999997,-1.3282771580000001
39.653124999999996,43.15995972222217,97.20924000000004,-1.1589769399999998
39.653749999999995,43.1627916666666,97.20924000000004,-0.9837568600000001
39.654374999999995,43.16562361111103,97.20924000000004,-0.87689706
39.654999999999994,43.16845555555546,97.20470000000002,-0.8308396599999999
39.65562499999999,43.17128749999989,97.20470000000002,-0.8159019400000002
39.65624999999999,43.17411944444432,97.20016,-0.8197462600000001
39.65687499999999,43.17695138888875,97.20016,-0.7720181799999999
39.65749999999999,43.179783333333184,97.20016,-0.6977742400000001
39.65812499999999,43.182615277777614,97.19916,-0.5877588600000001
39.65874999999999,43.185447222222045,97.19916,-0.5278805
39.65937499999999,43.188279166666476,97.19461999999999,-0.57997008
39.66004166666666,43.1909636111109,97.19461999999999,-0.6832655599999999
39.660708333333325,43.19364805555533,97.19461999999999,-0.8109977199999999
39.66137499999999,43.196332499999755,97.19007999999995,-0.8802502400000001
39.66204166666666,43.19901694444418,97.19361999999998,-0.8360139999999999
39.66270833333333,43.20170138888861,97.18908000000002,-0.7289386999999999
39.663374999999995,43.204385833333035,97.18908000000002,-0.61886298
39.66404166666666,43.20707027777746,97.18908000000002,-0.5987713000000001
39.66470833333333,43.20975472222189,97.18454,-0.71449416
39.665375,43.212439166666314,97.18454,-0.8640333800000001
39.666041666666665,43.21512361111074,97.18354,-0.9736545000000001
39.66670833333333,43.21780805555517,97.18354,-0.96741366
39.667375,43.219988055555156,97.18354,-0.8776009000000001
39.66804166666667,43.222168055555144,97.17900000000003,-0.78906292
39.668708333333335,43.224348055555126,97.17900000000003,-0.7649956599999999
39.669375,43.226528055555114,97.17900000000003,-0.8484131200000001
39.67014423076923,43.22834497863203,97.17446000000001,-0.9947081
39.67091346153846,43.23016190170895,97.17799999999998,-1.09160474
39.67168269230769,43.23197882478586,97.17799999999998,-1.0962484
39.67245192307692,43.23379574786278,97.17345999999996,-1.02013784
39.67322115384615,43.2356126709397,97.17345999999996,-0.91112358
39.67399038461538,43.23742959401662,97.16892,-0.8849426199999999
39.67475961538461,43.23975096153797,97.16892,-0.90708184
39.67552884615384,43.242072329059326,97.16892,-1.0230564800000002
39.67629807692307,43.24439369658069,97.16892,-1.13299252
39.6770673076923,43.24671506410204,97.16437999999998,-1.1311341799999999
39.67783653846153,43.249036431623395,97.16437999999998,-1.04202698
39.67860576923076,43.251357799144756,97.15983999999996,-0.8662759000000001
39.679374999999986,43.25367916666611,97.16337999999998,-0.7342941800000002
39.68020833333332,43.25577361111054,97.16337999999998,-0.7116930400000001
39.68104166666665,43.25786805555497,97.16337999999998,-0.7834074000000001
39.681874999999984,43.2599624999994,97.15884000000001,-0.8829778799999999
39.682708333333316,43.26205694444384,97.15884000000001,-0.9197983599999999
39.68354166666665,43.26415138888827,97.15884000000001,-0.8321065399999998
39.68437499999998,43.266245833332704,97.15429999999999,-0.6735412
39.685208333333314,43.268340277777135,97.15429999999999,-0.5266537
39.68604166666665,43.270434722221566,97.15784000000001,-0.48747192000000017
39.68687499999998,43.272529166666,97.15329999999999,-0.5742963600000002
39.68770833333331,43.27462361111043,97.15329999999999,-0.69698696
39.688541666666644,43.27671805555486,97.15329999999999,-0.7777110200000001
39.68937499999998,43.27881249999929,97.15329999999999,-0.7486601599999998
39.690486111111085,43.2799236111104,97.14876000000004,-0.63642708
39.69159722222219,43.281034722221506,97.1523,-0.5593066
39.6927083333333,43.28214583333261,97.1523,-0.58464056
39.69381944444441,43.28325694444372,97.14775999999998,-0.6707904999999998
39.694930555555516,43.28436805555483,97.14775999999998,-0.80908666
39.69604166666662,43.28547916666594,97.14775999999998,-0.8770535359999998
39.69715277777773,43.286590277777044,97.14775999999998,-0.84147772
39.69826388888884,43.28770138888815,97.14321999999996,-0.790429984
39.69937499999995,43.288812499999295,97.14321999999996,-0.741759548
39.70048611111106,43.289923611110375,97.14321999999996,-0.78533074
39.70159722222217,43.29103472222148,97.14321999999996,-0.9455521060000001
39.70270833333328,43.29214583333259,97.13868,-1.1359605384
39.703819444444385,43.2932569444437,97.13868,-1.25516583
39.70493055555549,43.294368055554806,97.13868,-1.298664798
39.7060416666666,43.29547916666591,97.13413999999997,-1.235610664
39.70715277777771,43.29659027777702,97.13413999999997,-1.1674591339999998
39.708263888888816,43.29770138888813,97.13413999999997,-1.16887537
39.70937499999992,43.2994430555548,97.13413999999997,-1.208065948
39.71080357142849,43.30006091269767,97.12959999999995,-1.306400646
39.71223214285706,43.30067876984052,97.12959999999995,-1.41623108
39.71366071428563,43.30129662698339,97.12959999999995,-1.4563617400000002
39.7150892857142,43.30191448412624,97.12506,-1.42229096
39.71651785714277,43.30253234126911,97.12152000000003,-1.32143104
39.71794642857134,43.30315019841196,97.12152000000003,-1.23325698
39.71937499999991,43.303768055554826,97.12152000000003,-1.26090962
39.72104166666657,43.30435376984054,97.12152000000003,-1.34814022
39.72270833333324,43.304939484126244,97.11698000000001,-1.45226926
39.7243749999999,43.30552519841196,97.11344,-1.5005348200000002
39.72604166666657,43.30611091269766,97.11344,-1.4693166400000002
39.72770833333323,43.306696626983374,97.11344,-1.4047741999999999
39.7293749999999,43.30728234126908,97.10535999999996,-1.3400367000000002
39.7313749999999,43.30668805555477,97.10535999999996,-1.30789954
39.7333749999999,43.30609376984047,97.10535999999996,-1.31837164
39.735374999999905,43.305499484126166,97.10181999999999,-1.3436808
39.73737499999991,43.30490519841186,97.09728000000003,-1.3428203
39.73937499999991,43.30431091269756,97.09728000000003,-1.3230460600000002
39.74137499999991,43.30371662698325,97.09374000000001,-1.2783235000000002
39.743374999999915,43.303122341268946,97.09374000000001,-1.2348292399999998
39.74537499999992,43.302528055554646,97.09374000000001,-1.2183453800000001
39.74737499999992,43.30301472222129,97.0902,-1.2106441019999998
39.74937499999992,43.303501388887945,97.08565999999998,-1.2263646419999998
39.751374999999925,43.3039880555546,97.08212,-1.23863895
39.75337499999993,43.304474722221244,97.08212,-1.2303126519999998
39.75537499999993,43.3049613888879,97.07857999999999,-1.2062799299999998
39.75737499999993,43.30544805555455,97.07857999999999,-1.1556949500000002
39.759374999999935,43.3059347222212,97.07503999999997,-1.1145531140000002
39.76187499999993,43.30465138888787,97.07503999999997,-1.09999528
39.76437499999993,43.303368055554536,97.06695999999998,-1.1152757260000001
39.76687499999993,43.3020847222212,97.06341999999997,-1.1446990060000002
39.769374999999926,43.30080138888787,97.06341999999997,-1.1447144580000002
39.77187499999992,43.299518055554536,97.05987999999995,-1.105619248
39.77437499999992,43.29974805555456,97.05987999999995,-1.0419584939999997
39.77687499999992,43.299978055554575,97.05633999999999,-0.9986949199999999
39.779374999999916,43.3002080555546,97.05279999999998,-0.9823712680000001
39.78270833333325,43.297488055554616,97.05279999999998,-0.9864103499999999
39.78604166666658,43.29476805555464,97.04925999999995,-0.998047266
39.78937499999991,43.29431805555464,97.04571999999999,-0.992834182
39.79270833333324,43.29386805555464,97.04571999999999,-0.9803237739999998
39.79604166666657,43.29341805555464,97.04217999999997,-0.9530865479999999
39.7993749999999,43.29296805555464,97.0341,-0.9259792520000001
39.801874999999896,43.29319805555466,97.03056000000002,-0.9029088140000001
39.804374999999894,43.29342805555468,97.03056000000002,-0.8924046111999999
39.80687499999989,43.2936580555547,97.02702000000001,-0.897075369
39.80937499999989,43.29388805555472,97.02347999999999,-0.8969249420000002
39.81270833333323,43.291168055554714,97.01994000000003,-0.9034663636000002
39.81604166666656,43.29071805555471,97.01994000000003,-0.8843194590000001
39.81937499999989,43.29026805555472,97.0164,-0.8580365520000001
39.82437499999989,43.28391805555469,97.01285999999999,-0.8329402464000002
39.82937499999989,43.277568055554674,97.00932000000003,-0.8068097399999998
39.83270833333322,43.27711805555471,97.00578000000002,-0.802809178
39.83604166666655,43.27666805555471,97.00224,-0.8002937299999999
39.83937499999988,43.27621805555471,96.99870000000003,-0.8043283114
39.84270833333322,43.275768055554686,97.00323999999999,-0.7997941726
39.84604166666655,43.279101388888016,96.99969999999996,-0.7697963360000002
39.84937499999988,43.282434722221346,96.99615999999995,-0.73167844
39.85437499999988,43.27986805555468,96.99261999999999,-0.69909947
39.85937499999988,43.27351805555466,96.98907999999997,-0.6912714600000001
39.86270833333321,43.27306805555466,96.98553999999994,-0.7090175619999999
39.86604166666654,43.272618055554666,96.98199999999999,-0.730135356
39.86937499999987,43.272168055554666,96.97845999999997,-0.7292728860000001
39.87437499999987,43.26960138888798,96.97491999999995,-0.7068788719999999
39.879374999999875,43.26703472222128,96.97137999999998,-0.6765405879999999
39.88437499999988,43.264468055554595,96.96783999999997,-0.6415335240000001
39.88937499999988,43.261901388887935,96.96429999999995,-0.6313397860000001
39.89437499999988,43.25933472222125,96.96075999999998,-0.6398853659999999
39.899374999999885,43.25676805555456,96.95721999999996,-0.653354536
39.902708333333216,43.26010138888789,96.95367999999995,-0.6590711659999999
39.906041666666546,43.26343472222122,96.95468000000001,-0.6384366840000001
39.909374999999876,43.26676805555455,96.95113999999998,-0.6101853320000001
39.91437499999988,43.26420138888786,96.94759999999997,-0.58875372
39.91937499999988,43.261634722221174,96.94406000000001,-0.57629133
39.924374999999884,43.25906805555448,96.94051999999999,-0.566527636
39.92937499999989,43.25650138888779,96.93697999999998,-0.569517288
39.93437499999989,43.2539347222211,96.93344,-0.5746093319999999
39.93937499999989,43.251368055554416,96.92989999999999,-0.5738850520000001
39.94937499999989,43.238668055554434,96.9309,-0.558825368
39.95437499999989,43.24366805555444,96.92736000000002,-0.537030876
39.959374999999895,43.24110138888774,96.92382,-0.522872062
39.96437499999989,43.23853472222108,96.92027999999999,-0.522583538
39.96937499999989,43.235968055554395,96.91674000000002,-0.5365457659999999
39.974374999999895,43.2409680555544,96.90965999999999,-0.5478898959999999
39.9793749999999,43.2459680555544,96.90612000000003,-0.54835955
39.9843749999999,43.24340138888774,96.90711999999996,-0.532113988
39.9893749999999,43.24083472222105,96.90357999999995,-0.49709083600000004
39.99937499999991,43.22056805555435,96.90003999999998,-0.462836864
40.00437499999991,43.22556805555432,96.89649999999996,-0.45384634
40.00937499999991,43.23056805555432,96.89296,-0.46873428400000006
40.014374999999916,43.235568055554324,96.88941999999999,-0.49965408599999994
40.01937499999992,43.24056805555433,96.88688000000002,-0.515225482
40.02937499999992,43.227868055554325,96.88334,-0.502666496
40.034374999999926,43.23286805555433,96.87979999999999,-0.46998837599999993
40.03937499999993,43.23786805555433,96.87626000000002,-0.43923216800000003
40.04937499999993,43.22516805555435,96.87272,-0.427289884
40.05437499999992,43.23016805555437,96.87372,-0.4367221900000001
40.059374999999925,43.235168055554375,96.86664000000002,-0.45463507200000003
40.06937499999993,43.22246805555437,96.8631,-0.46109947800000006
40.07437499999993,43.227468055554375,96.85956000000004,-0.44844089200000004
40.079374999999935,43.23246805555438,96.85602000000002,-0.4226325039999999
40.08937499999993,43.2197680555544,96.85701999999996,-0.40082462600000013
40.094374999999935,43.2247680555544,96.85347999999999,-0.38586529599999997
40.09937499999994,43.2297680555544,96.84639999999996,-0.388465936
40.109374999999936,43.21706805555442,96.84286,-0.3985585479999999
40.119374999999934,43.20436805555444,96.83931999999997,-0.40802028600000007
40.12437499999993,43.209368055554464,96.84031999999998,-0.410485148
40.12937499999993,43.214368055554466,96.83678000000002,-0.395827782
40.13937499999994,43.201668055554464,96.82969999999999,-0.3778246759999999
40.149374999999935,43.188968055554476,96.82616000000002,-0.3651738520000001
40.15437499999993,43.216668055554486,96.82716000000002,-0.361716448
40.15937499999993,43.22166805555446,96.82362,-0.370863196
40.16937499999993,43.20896805555447,96.82008000000003,-0.37696716
40.179374999999936,43.19626805555447,96.813,-0.37345897
40.189374999999934,43.18356805555449,96.80946000000003,-0.35609982
40.19437499999994,43.21126805555447,96.81045999999998,-0.33298291999999996
40.19937499999994,43.21626805555444,96.80691999999996,-0.318061668
40.209374999999945,43.203568055554435,96.80337999999999,-0.3172444080000001
40.21937499999994,43.19086805555445,96.79629999999996,-0.331648964
40.22937499999994,43.17816805555447,96.79730000000002,-0.344722274
40.23937499999994,43.1881680555545,96.79375999999999,-0.35186712
40.249374999999944,43.1754680555545,96.79021999999998,-0.34136821800000006
40.25437499999994,43.18046805555452,96.78668000000002,-0.318566028
40.25937499999994,43.2081680555545,96.78414000000001,-0.297204222
40.26937499999994,43.19546805555449,96.78060000000004,-0.2886897459999999
40.279374999999945,43.18276805555448,96.77706000000002,-0.30030982399999995
40.28937499999994,43.19276805555452,96.77352,-0.317313758
40.29937499999994,43.180068055554536,96.77097999999998,-0.32476689
40.30937499999994,43.16736805555455,96.76743999999997,-0.31914028400000005
40.319374999999944,43.177368055554524,96.76389999999999,-0.30361972200000004
40.32937499999994,43.18736805555456,96.76035999999998,-0.29429819599999996
40.33937499999994,43.17466805555454,96.76135999999998,-0.29036409
40.349374999999945,43.16196805555453,96.75428,-0.29348787
40.35937499999994,43.17196805555453,96.75073999999998,-0.30243064399999997
40.36937499999994,43.18196805555453,96.7472,-0.30554288200000007
40.37937499999994,43.16926805555455,96.74820000000001,-0.303041782
40.389374999999944,43.156568055554544,96.74112000000004,-0.29405644200000003
40.39937499999994,43.16656805555454,96.73758000000002,-0.27908764799999997
40.40937499999994,43.17656805555454,96.73404000000001,-0.26898260799999996
40.41937499999994,43.16386805555456,96.73504,-0.261455524
40.42937499999994,43.15116805555455,96.72795999999995,-0.26058719399999997
40.43937499999994,43.16116805555455,96.72442,-0.26822429600000003
40.44937499999994,43.171168055554546,96.72542,-0.27252277999999996
40.459374999999945,43.18116805555452,96.72187999999998,-0.274070288
40.46937499999994,43.16846805555454,96.71834000000001,-0.262905922
40.47937499999994,43.15576805555456,96.71125999999998,-0.24936091600000004
40.48937499999994,43.16576805555455,96.71226000000003,-0.244042232
40.499374999999944,43.17576805555453,96.70872000000001,-0.24930641400000003
40.50937499999994,43.18576805555456,96.70518,-0.262234234
40.51937499999994,43.19576805555455,96.69810000000001,-0.267325272
40.529374999999945,43.20576805555453,96.69909999999996,-0.26144737199999996
40.53937499999994,43.19306805555451,96.69555999999999,-0.244361914
40.54937499999994,43.18036805555453,96.69201999999997,-0.22921212000000002
40.569374999999944,43.15496805555455,96.68948000000002,-0.224474252
40.57937499999994,43.164968055554546,96.68593999999999,-0.22981838599999999
40.58937499999994,43.174968055554544,96.68239999999997,-0.241796734
40.599374999999945,43.18496805555451,96.67886000000001,-0.24768003200000005
40.60937499999994,43.19496805555455,96.67986000000002,-0.24119186400000003
40.61937499999994,43.204968055554545,96.67278000000003,-0.22677019800000003
40.639374999999944,43.179568055554526,96.66924000000002,-0.21454382
40.64937499999994,43.18956805555455,96.67023999999995,-0.20978526600000003
40.65937499999994,43.19956805555455,96.66669999999999,-0.21468578999999996
40.66937499999994,43.20956805555455,96.66315999999998,-0.22250793199999996
40.67937499999994,43.219568055554525,96.65607999999999,-0.22582457200000006
40.69937499999994,43.194168055554556,96.65708,-0.221933048
40.709374999999945,43.20416805555453,96.65353999999998,-0.21516142600000004
40.71937499999994,43.21416805555453,96.65,-0.206839848
40.72937499999994,43.22416805555456,96.64645999999999,-0.203773496
40.749374999999944,43.19876805555454,96.64392000000004,-0.20548422200000005
40.75937499999994,43.208768055554536,96.64038000000001,-0.205404696
40.76937499999994,43.218768055554534,96.63683999999999,-0.206067122
40.779374999999945,43.22876805555454,96.63783999999998,-0.20254540199999999
40.79937499999994,43.20336805555455,96.63429999999997,-0.19825806399999998
40.80937499999994,43.21336805555455,96.63075999999995,-0.19103460400000005
40.819374999999944,43.22336805555455,96.62367999999996,-0.183583628
40.83937499999994,43.197968055554554,96.62467999999997,-0.17734307400000002
40.849374999999945,43.20796805555453,96.62114000000001,-0.17765620800000004
40.85937499999994,43.21796805555453,96.6176,-0.18369740000000007
40.87937499999994,43.19256805555456,96.61405999999998,-0.18902163399999994
40.889374999999944,43.202568055554536,96.61506000000003,-0.18998128599999997
40.89937499999994,43.212568055554534,96.61152000000001,-0.18117595000000003
40.91937499999994,43.18716805555454,96.60444000000003,-0.17280134800000002
40.92937499999994,43.19716805555454,96.60543999999997,-0.16654297
40.94937499999994,43.17176805555455,96.60189999999996,-0.166381362
40.959374999999945,43.22716805555454,96.59835999999999,-0.17179842
40.96937499999994,43.23716805555454,96.59481999999997,-0.17297329199999997
40.98937499999994,43.21176805555455,96.59581999999997,-0.17110351999999998
40.999374999999944,43.22176805555452,96.59228,-0.16635041200000003
41.01937499999994,43.19636805555456,96.58873999999999,-0.158136924
41.029374999999945,43.206368055554535,96.58519999999997,-0.156679652
41.04937499999994,43.22636805555456,96.58620000000003,-0.156177872
41.05937499999994,43.23636805555456,96.58266000000002,-0.158142952
41.07937499999994,43.21096805555454,96.57558000000003,-0.160890088
41.08937499999994,43.220968055554536,96.57204000000002,-0.16098525000000002
41.10937499999994,43.195568055554546,96.57304,-0.160961668
41.11937499999994,43.25096805555454,96.56949999999999,-0.15724972400000004
41.139374999999944,43.22556805555455,96.56595999999996,-0.154637164
41.14937499999994,43.235568055554545,96.56242,-0.151468198
41.16937499999994,43.210168055554554,96.56342000000001,-0.15007141000000002
41.17937499999994,43.265568055554546,96.55987999999999,-0.151240672
41.19937499999994,43.240168055554555,96.55634000000002,-0.15326321799999998
41.209374999999945,43.250168055554525,96.5528,-0.15480210400000002
41.22937499999994,43.224768055554534,96.55380000000001,-0.152436812
41.23937499999994,43.280168055554554,96.55026000000004,-0.148686158
41.25937499999994,43.254768055554536,96.54672000000002,-0.14224340000000002
41.26937499999994,43.26476805555456,96.54318,-0.139610462
41.28937499999994,43.28476805555454,96.54418,-0.14322100600000004
41.30937499999994,43.25936805555454,96.54063999999998,-0.148692422
41.319374999999944,43.269368055554544,96.53709999999997,-0.15328008599999998
41.33937499999994,43.24396805555455,96.53356,-0.15168393800000002
41.35937499999994,43.26396805555455,96.53456,-0.14433015200000004
41.36937499999994,43.27396805555455,96.53101999999998,-0.137414682
41.389374999999944,43.29396805555452,96.52748000000003,-0.13509943000000002
41.39937499999994,43.30396805555455,96.52394000000001,-0.135859024
