Time,Temperature,Weight,Deriv. Weight
39.65,43.05340000000001,97.29536000000002,-1.6132988799999999
39.650625,43.05617361111111,97.29536000000002,-1.5671740340000002
39.65125,43.05894722222221,97.29194,-1.5402016079999998
39.651875,43.061720833333304,97.28751999999997,-1.4554738664000002
39.652499999999996,43.064494444444406,97.28751999999997,-1.2947620340000001
39.653124999999996,43.0672680555555,97.28652000000004,-1.13122562
39.653749999999995,43.070041666666604,97.28652000000004,-0.96173578
39.654374999999995,43.0728152777777,97.28652000000004,-0.8584063799999999
39.654999999999994,43.075588888888795,97.28210000000001,-0.8142821799999999
39.65562499999999,43.0783624999999,97.28210000000001,-0.80060662
39.65624999999999,43.08113611111099,97.27767999999999,-0.8050259800000001
39.65687499999999,43.08390972222209,97.27767999999999,-0.7591701399999999
39.65749999999999,43.08668333333319,97.27767999999999,-0.6870875200000002
39.65812499999999,43.08945694444429,97.27668,-0.58005978
39.65874999999999,43.09223055555539,97.27668,-0.5215835
39.65937499999999,43.095004166666484,97.27225999999997,-0.57187584
39.66004166666666,43.09763527777758,97.27225999999997,-0.67236788
39.660708333333325,43.10026638888867,97.27225999999997,-0.79662556
39.66137499999999,43.10289749999976,97.26783999999996,-0.86396552
39.66204166666666,43.105528611110856,97.27125999999997,-0.8208219999999999
39.66270833333333,43.10815972222195,97.26684000000002,-0.7163621
39.663374999999995,43.11079083333304,97.26684000000002,-0.60915654
39.66404166666666,43.11342194444414,97.26684000000002,-0.5895799000000002
39.66470833333333,43.116053055555234,97.26241999999999,-0.7019836799999999
39.665375,43.11868416666633,97.26241999999999,-0.8472997400000001
39.666041666666665,43.12131527777742,97.26141999999999,-0.9536115000000001
39.66670833333333,43.12394638888851,97.26141999999999,-0.9472561799999999
39.667375,43.126086388888496,97.26141999999999,-0.8597167000000001
39.66804166666667,43.128226388888486,97.25700000000003,-0.77339116
39.668708333333335,43.130366388888476,97.25700000000003,-0.74991418
39.669375,43.13250638888846,97.25700000000003,-0.8308837600000001
39.67014423076923,43.134295619657685,97.25258000000001,-0.9728363
39.67091346153846,43.13608485042691,97.25599999999999,-1.06694102
39.67168269230769,43.13787408119613,97.25599999999999,-1.0711971999999998
39.67245192307692,43.13966331196536,97.25157999999996,-0.99699632
39.67322115384615,43.141452542734584,97.25157999999996,-0.8907923400000001
39.67399038461538,43.14324177350381,97.24716,-0.8649142599999999
39.67475961538461,43.14552211538414,97.24716,-0.88643632
39.67552884615384,43.14780245726447,97.24716,-0.9990730400000002
39.67629807692307,43.1500827991448,97.24716,-1.10598796
39.6770673076923,43.152363141025134,97.24273999999998,-1.1042461399999999
39.67783653846153,43.15464348290546,97.24273999999998,-1.01751854
39.67860576923076,43.15692382478579,97.23831999999996,-0.8467117000000001
39.679374999999986,43.15920416666613,97.24173999999998,-0.71843414
39.68020833333332,43.161265277777225,97.24173999999998,-0.69665392
39.68104166666665,43.16332638888832,97.24173999999998,-0.7666122000000001
39.681874999999984,43.165387499999426,97.23732000000001,-0.86364324
39.682708333333316,43.16744861111052,97.23732000000001,-0.8996522799999999
39.68354166666665,43.16950972222162,97.23732000000001,-0.8144664199999999
39.68437499999998,43.171570833332716,97.2329,-0.6603195999999999
39.685208333333314,43.17363194444382,97.2329,-0.5175691
39.68604166666665,43.175693055554916,97.23632,-0.4794981600000001
39.68687499999998,43.17775416666601,97.2319,-0.56399628
39.68770833333331,43.17981527777712,97.2319,-0.6831660799999999
39.688541666666644,43.18187638888821,97.2319,-0.76135346
39.68937499999998,43.18393749999931,97.2319,-0.7327716799999999
39.690486111111085,43.18504861111042,97.22748000000003,-0.6233828400000001
39.69159722222219,43.186159722221525,97.2309,-0.5482018
39.6927083333333,43.18727083333263,97.2309,-0.57259088
39.69381944444441,43.18838194444374,97.22647999999998,-0.6562314999999999
39.694930555555516,43.18949305555485,97.22647999999998,-0.79038718
39.69604166666662,43.190604166665956,97.22647999999998,-0.8562841279999998
39.69715277777773,43.191715277777064,97.22647999999998,-0.82160956
39.69826388888884,43.19282638888817,97.22205999999996,-0.771720832
39.69937499999995,43.193937499999315,97.22205999999996,-0.724162004
39.70048611111106,43.195048611110394,97.22205999999996,-0.76607302
39.70159722222217,43.1961597222215,97.22205999999996,-0.921222238
39.70270833333328,43.19727083333261,97.21764,-1.1057215032
39.703819444444385,43.19838194444372,97.21764,-1.22122509
39.70493055555549,43.199493055554825,97.21764,-1.263293754
39.7060416666666,43.20060416666593,97.21321999999998,-1.201908472
39.70715277777771,43.20171527777704,97.21321999999998,-1.1354782819999998
39.708263888888816,43.20282638888815,97.21321999999998,-1.13637451
39.70937499999992,43.204551388888156,97.21321999999998,-1.1740992039999998
39.71080357142849,43.20519067460245,97.20879999999995,-1.269458658
39.71223214285706,43.205829960316734,97.20879999999995,-1.37603684
39.71366071428563,43.20646924603102,97.20879999999995,-1.4149460200000001
39.7150892857142,43.20710853174531,97.20438,-1.38159608
39.71651785714277,43.2077478174596,97.20096000000004,-1.28333392
39.71794642857134,43.20838710317389,97.20096000000004,-1.19739654
39.71937499999991,43.20902638888818,97.20096000000004,-1.2239792600000001
39.72104166666657,43.209640674602454,97.20096000000004,-1.30852906
39.72270833333324,43.21025496031674,97.19654000000001,-1.40954698
39.7243749999999,43.21086924603102,97.19312,-1.45634086
39.72604166666657,43.2114835317453,97.19312,-1.4258327200000003
39.72770833333323,43.21209781745958,97.19312,-1.3628725999999998
39.7293749999999,43.21271210317386,97.18527999999995,-1.2997761
39.7313749999999,43.21218638888813,97.18527999999995,-1.26850342
39.7333749999999,43.21166067460239,97.18527999999995,-1.27866772
39.735374999999905,43.21113496031666,97.18185999999999,-1.3031964
39.73737499999991,43.21060924603093,97.17744000000003,-1.3022429
39.73937499999991,43.2100835317452,97.17744000000003,-1.28291338
39.74137499999991,43.20955781745946,97.17402000000001,-1.2393325
39.743374999999915,43.20903210317373,97.17402000000001,-1.1968905199999997
39.74537499999992,43.208506388888,97.17402000000001,-1.18064174
39.74737499999992,43.20903305555465,97.1706,-1.1729243459999998
39.74937499999992,43.2095597222213,97.16617999999998,-1.1880867659999998
39.751374999999925,43.21008638888795,97.16276,-1.19995185
39.75337499999993,43.2106130555546,97.16276,-1.1918569959999998
39.75537499999993,43.211139722221255,97.15933999999999,-1.1684943899999998
39.75737499999993,43.211666388887906,97.15933999999999,-1.1192398500000003
39.759374999999935,43.21219305555456,97.15591999999998,-1.0791376220000002
39.76187499999993,43.21100972222123,97.15591999999998,-1.06484944
39.76437499999993,43.2098263888879,97.14808,-1.079609698
39.76687499999993,43.20864305555456,97.14465999999997,-1.108159138
39.769374999999926,43.20745972222123,97.14465999999997,-1.1081345340000002
39.77187499999992,43.2062763888879,97.14123999999995,-1.070048704
39.77437499999992,43.206566388887914,97.14123999999995,-1.0080793619999997
39.77687499999992,43.206856388887935,97.13781999999999,-0.96589916
39.779374999999916,43.207146388887956,97.13439999999997,-0.9499551639999999
39.78270833333325,43.204586388887975,97.13439999999997,-0.9539080499999999
39.78604166666658,43.202026388887994,97.13097999999995,-0.965237118
39.78937499999991,43.201676388887996,97.12755999999999,-0.9602081859999998
39.79270833333324,43.201326388888,97.12755999999999,-0.9480548019999998
39.79604166666657,43.200976388887995,97.12413999999997,-0.9215426039999999
39.7993749999999,43.200626388888,97.1163,-0.895150796
39.801874999999896,43.20091638888802,97.11288000000003,-0.872676722
39.804374999999894,43.20120638888803,97.11288000000003,-0.8623840575999999
39.80687499999989,43.20149638888805,97.10946000000001,-0.8668704869999999
39.80937499999989,43.201786388888074,97.10604,-0.866699666
39.81270833333323,43.199226388888064,97.10262000000003,-0.8730603628
39.81604166666656,43.19887638888807,97.10262000000003,-0.8545365569999999
39.81937499999989,43.19852638888807,97.09920000000001,-0.829002696
39.82437499999989,43.19247638888805,97.09577999999999,-0.8045676672000002
39.82937499999989,43.18642638888803,97.09236000000003,-0.7791100199999998
39.83270833333322,43.18607638888806,97.08894000000001,-0.775191094
39.83604166666655,43.185726388888064,97.08551999999999,-0.7728377899999999
39.83937499999988,43.185376388888066,97.08210000000003,-0.7768581622
39.84270833333322,43.18502638888804,97.08651999999998,-0.7725089698000001
39.84604166666655,43.18835972222137,97.08309999999997,-0.7433497280000001
39.84937499999988,43.1916930555547,97.07967999999995,-0.70624012
39.85437499999988,43.189326388888034,97.07625999999999,-0.67453781
39.85937499999988,43.18327638888802,97.07283999999997,-0.6669355800000001
39.86270833333321,43.18292638888802,97.06941999999995,-0.684245926
39.86604166666654,43.182576388888016,97.06599999999999,-0.704869188
39.86937499999987,43.18222638888802,97.06257999999997,-0.704094378
39.87437499999987,43.17985972222133,97.05915999999995,-0.6823380559999999
39.879374999999875,43.17749305555464,97.05573999999999,-0.6528115239999999
39.88437499999988,43.17512638888795,97.05231999999997,-0.618773052
39.88937499999988,43.17275972222129,97.04889999999995,-0.608851078
39.89437499999988,43.170393055554605,97.04547999999998,-0.617171418
39.899374999999885,43.16802638888792,97.04205999999996,-0.6302943280000001
39.902708333333216,43.17135972222125,97.03863999999994,-0.635868818
39.906041666666546,43.17469305555458,97.03964,-0.615861732
39.909374999999876,43.17802638888791,97.03621999999999,-0.588416636
39.91437499999988,43.17565972222122,97.03279999999997,-0.56757156
39.91937499999988,43.17329305555453,97.02938,-0.55545459
39.924374999999884,43.17092638888784,97.02595999999998,-0.545997628
39.92937499999989,43.168559722221154,97.02253999999996,-0.548955624
39.93437499999989,43.166193055554466,97.01912,-0.5539566359999999
39.93937499999989,43.16382638888778,97.01569999999998,-0.5533081959999999
39.94937499999989,43.151726388887795,97.01669999999999,-0.538713464
39.95437499999989,43.1567263888878,97.01328000000002,-0.517526148
39.959374999999895,43.15435972222111,97.00986,-0.503719426
39.96437499999989,43.15199305555444,97.00644,-0.503409374
39.96937499999989,43.149626388887754,97.00302000000002,-0.5170226179999999
39.974374999999895,43.154626388887756,96.99618,-0.528191608
39.9793749999999,43.15962638888776,96.99276000000002,-0.52875965
39.9843749999999,43.1572597222211,96.99375999999997,-0.512997724
39.9893749999999,43.15489305555441,96.99033999999995,-0.47895722799999996
39.99937499999991,43.135426388887716,96.98691999999998,-0.44565387199999995
40.00437499999991,43.14042638888768,96.98349999999996,-0.43692381999999996
40.00937499999991,43.145426388887685,96.98008,-0.4514045320000001
40.014374999999916,43.15042638888769,96.97665999999998,-0.4814739779999999
40.01937499999992,43.15542638888769,96.97424000000002,-0.49665808599999994
40.02937499999992,43.14332638888769,96.97082,-0.484487408
40.034374999999926,43.14832638888769,96.96739999999998,-0.4527426479999999
40.03937499999993,43.15332638888769,96.96398000000002,-0.422843864
40.04937499999993,43.14122638888771,96.96056,-0.411245332
40.05437499999992,43.14622638888774,96.96156,-0.42046837000000015
40.059374999999925,43.151226388887736,96.95472000000002,-0.43794465600000004
40.06937499999993,43.13912638888773,96.9513,-0.444293994
40.07437499999993,43.144126388887734,96.94788000000004,-0.4320225160000001
40.079374999999935,43.14912638888774,96.94446000000002,-0.4069475919999999
40.08937499999993,43.137026388887755,96.94545999999997,-0.3857463980000001
40.094374999999935,43.14202638888776,96.94203999999999,-0.371223808
40.09937499999994,43.14702638888776,96.93519999999997,-0.3738045280000001
40.109374999999936,43.13492638888778,96.93177999999999,-0.3836646039999999
40.119374999999934,43.122826388887795,96.92835999999998,-0.39292657799999997
40.12437499999993,43.127826388887826,96.92935999999999,-0.39536440400000006
40.12937499999993,43.13282638888783,96.92594000000001,-0.38114298599999996
40.13937499999994,43.12072638888782,96.91909999999999,-0.3636635479999999
40.149374999999935,43.10862638888784,96.91568000000001,-0.35138059600000005
40.15437499999993,43.135726388887846,96.91668000000001,-0.34806630399999994
40.15937499999993,43.14072638888781,96.91326000000001,-0.35700350799999997
40.16937499999993,43.12862638888784,96.90984000000003,-0.3629986800000001
40.179374999999936,43.11652638888783,96.903,-0.35962230999999995
40.189374999999934,43.104426388887845,96.89958000000004,-0.3427698599999999
40.19437499999994,43.13152638888783,96.90057999999998,-0.32032316
40.19937499999994,43.1365263888878,96.89715999999996,-0.305822364
40.209374999999945,43.1244263888878,96.89374,-0.30504938400000003
40.21937499999994,43.112326388887816,96.88689999999995,-0.319072172
40.22937499999994,43.10022638888783,96.88790000000002,-0.33181830199999995
40.23937499999994,43.11022638888786,96.88448,-0.33878975999999994
40.249374999999944,43.098126388887856,96.88105999999998,-0.328603014
40.25437499999994,43.10312638888788,96.87764000000001,-0.30644864399999994
40.25937499999994,43.13022638888786,96.87522,-0.28568910599999997
40.26937499999994,43.11812638888785,96.87180000000004,-0.27744815799999994
40.279374999999945,43.10602638888784,96.86838000000002,-0.288769952
40.28937499999994,43.116026388887875,96.86496,-0.305328434
40.29937499999994,43.10392638888789,96.86253999999998,-0.31260446999999997
40.30937499999994,43.09182638888791,96.85911999999996,-0.307150532
40.319374999999944,43.101826388887886,96.8557,-0.292083606
40.32937499999994,43.11182638888791,96.85227999999998,-0.283036508
40.33937499999994,43.0997263888879,96.85327999999998,-0.27924207
40.349374999999945,43.08762638888789,96.84644,-0.28232300999999993
40.35937499999994,43.09762638888789,96.84301999999998,-0.291048812
40.36937499999994,43.10762638888789,96.83960000000002,-0.29410828600000005
40.37937499999994,43.095526388887905,96.84060000000002,-0.291698986
40.389374999999944,43.0834263888879,96.83376000000003,-0.282974166
40.39937499999994,43.0934263888879,96.83034000000002,-0.26844590399999996
40.40937499999994,43.1034263888879,96.82692,-0.25863798399999993
40.41937499999994,43.091326388887914,96.82791999999999,-0.25136105200000003
40.42937499999994,43.07922638888791,96.82107999999995,-0.250563462
40.43937499999994,43.08922638888791,96.81765999999999,-0.258004808
40.44937499999994,43.09922638888791,96.81866,-0.26218393999999995
40.459374999999945,43.109226388887876,96.81523999999997,-0.263666624
40.46937499999994,43.097126388887894,96.81182000000001,-0.252818206
40.47937499999994,43.08502638888791,96.80497999999997,-0.239687068
40.48937499999994,43.095026388887916,96.80598000000003,-0.234569336
40.499374999999944,43.105026388887886,96.80256000000001,-0.23972752200000003
40.50937499999994,43.11502638888791,96.79914,-0.25230938199999997
40.51937499999994,43.12502638888792,96.79230000000001,-0.25727325599999995
40.529374999999945,43.13502638888789,96.79329999999996,-0.251579556
40.53937499999994,43.122926388887876,96.78988,-0.23500802199999998
40.54937499999994,43.110826388887894,96.78645999999998,-0.22031676
40.569374999999944,43.08662638888791,96.78404,-0.21574379600000002
40.57937499999994,43.096626388887906,96.78062,-0.22096287799999997
40.58937499999994,43.1066263888879,96.77719999999998,-0.23261288200000002
40.599374999999945,43.11662638888787,96.77378000000002,-0.238330736
40.60937499999994,43.12662638888791,96.77478000000002,-0.232036872
40.61937499999994,43.136626388887905,96.76794000000002,-0.218056554
40.639374999999944,43.11242638888788,96.76452000000002,-0.20621185999999997
40.64937499999994,43.12242638888791,96.76551999999995,-0.20161531800000004
40.65937499999994,43.13242638888791,96.76209999999999,-0.20638856999999997
40.66937499999994,43.142426388887905,96.75867999999997,-0.21399443599999995
40.67937499999994,43.15242638888788,96.75183999999999,-0.21723055600000002
40.69937499999994,43.12822638888792,96.75283999999999,-0.21347830399999998
40.709374999999945,43.138226388887894,96.74941999999997,-0.20693039800000007
40.71937499999994,43.14822638888789,96.74600000000001,-0.198874704
40.72937499999994,43.15822638888792,96.74257999999999,-0.19591200800000003
40.749374999999944,43.1340263888879,96.74016000000003,-0.19757750600000007
40.75937499999994,43.144026388887895,96.73674000000001,-0.197523408
40.76937499999994,43.15402638888789,96.73331999999999,-0.19819580599999997
40.779374999999945,43.1640263888879,96.73431999999998,-0.19481004600000001
40.79937499999994,43.139826388887904,96.73089999999998,-0.190672072
40.80937499999994,43.1498263888879,96.72747999999996,-0.18367529200000005
40.819374999999944,43.15982638888791,96.72063999999997,-0.176456444
40.83937499999994,43.135626388887914,96.72163999999998,-0.17040970199999997
40.849374999999945,43.145626388887884,96.71822,-0.170726184
40.85937499999994,43.15562638888788,96.7148,-0.176603
40.87937499999994,43.131426388887924,96.71137999999998,-0.18179618199999997
40.889374999999944,43.14142638888789,96.71238000000002,-0.18275777799999998
40.89937499999994,43.15142638888789,96.70896000000002,-0.17424025000000004
40.91937499999994,43.1272263888879,96.70212000000002,-0.166129804
40.92937499999994,43.1372263888879,96.70311999999997,-0.16006171
40.94937499999994,43.11302638888791,96.69969999999995,-0.159911526
40.959374999999945,43.167226388887904,96.69627999999999,-0.16517826000000002
40.96937499999994,43.1772263888879,96.69285999999997,-0.16633911599999998
40.98937499999994,43.15302638888791,96.69385999999997,-0.16454695999999996
40.999374999999944,43.16302638888788,96.69044000000001,-0.15994447600000003
41.01937499999994,43.138826388887914,96.68701999999999,-0.15198805199999998
41.029374999999945,43.14882638888789,96.68359999999997,-0.15058139599999998
41.04937499999994,43.168826388887915,96.68460000000003,-0.15010205599999998
41.05937499999994,43.17882638888791,96.68118000000001,-0.15202549599999998
41.07937499999994,43.1546263888879,96.67434000000003,-0.15470622399999998
41.08937499999994,43.164626388887896,96.67092000000001,-0.15481815000000002
41.10937499999994,43.1404263888879,96.67192,-0.15481716399999998
41.11937499999994,43.1946263888879,96.66849999999998,-0.15122505200000003
41.139374999999944,43.170426388887904,96.66507999999997,-0.148690972
41.14937499999994,43.1804263888879,96.66166,-0.145611154
41.16937499999994,43.15622638888791,96.66266,-0.14426023
41.17937499999994,43.2104263888879,96.65923999999998,-0.145415056
41.19937499999994,43.18622638888791,96.65582000000002,-0.14740821399999998
41.209374999999945,43.19622638888789,96.6524,-0.148935592
41.22937499999994,43.172026388887886,96.6534,-0.146654276
41.23937499999994,43.22622638888791,96.64998000000004,-0.14301643400000003
41.25937499999994,43.20202638888789,96.64656000000002,-0.13676
41.26937499999994,43.21202638888792,96.64314000000002,-0.134208626
41.28937499999994,43.23202638888789,96.64414000000001,-0.13773653800000002
41.30937499999994,43.207826388887895,96.64071999999999,-0.143073506
41.319374999999944,43.2178263888879,96.63729999999997,-0.14754997799999997
41.33937499999994,43.19362638888791,96.63388,-0.14601097400000002
41.35937499999994,43.21362638888791,96.63488000000001,-0.13887869600000002
41.36937499999994,43.22362638888791,96.63145999999999,-0.132170286
41.389374999999944,43.24362638888788,96.62804000000003,-0.12992568999999998
41.39937499999994,43.25362638888791,96.62462000000001,-0.130670752
41.41937499999994,43.229426388887916,96.62119999999999,-0.13553621600000001
41.43937499999994,43.24942638888792,96.62220000000003,-0.13640749000000002
41.44937499999994,43.25942638888792,96.61878000000003,-0.13518558799999997
