TITLE,
DATA TYPE,INFRARED SPECTRUM
ORIGIN,JASCO
OWNER,
DATE,24/04/24
TIME,10:01:27
SPECTROMETER/DATA SYSTEM,
LOCALE,1033
RESOLUTION,
DELTAX,0.964233
XUNITS,1/CM
YUNITS,TRANSMITTANCE
FIRSTX,  649.8934
LASTX, 4000.6047
NPOINTS,    3476
FIRSTY,    99.73769
MAXY,   101.33377
MINY,    60.51326
XYDATA
649.8934,99.7377
650.8576,99.5783
651.8218,99.4427
652.7861,99.3681
653.7503,99.3496
654.7145,99.3625
655.6788,99.3681
656.6430,99.3279
657.6072,99.2195
658.5715,99.0482
659.5357,98.8456
660.4999,98.6532
661.4642,98.498
662.4284,98.3757
663.3926,98.2566
664.3569,98.1035
665.3211,97.885
666.2853,97.588
667.2496,97.2465
668.2138,96.9685
669.1780,96.8551
670.1423,96.8707
671.1065,96.9101
672.0707,96.919
673.0350,96.8981
673.9992,96.8709
674.9634,96.863
675.9277,96.892
676.8919,96.9639
677.8561,97.0786
678.8204,97.2366
679.7846,97.4407
680.7488,97.6872
681.7131,97.961
682.6773,98.2393
683.6415,98.5044
684.6058,98.7536
685.5700,98.9957
686.5342,99.235
687.4985,99.4576
688.4627,99.629
689.4269,99.706
690.3912,99.6591
691.3554,99.5033
692.3196,99.3228
693.2839,99.2484
694.2481,99.3588
695.2123,99.6086
696.1766,99.8877
697.1408,100.11
698.1050,100.241
699.0693,100.281
700.0335,100.257
700.9977,100.202
701.9620,100.145
702.9262,100.1
703.8904,100.074
704.8547,100.067
705.8189,100.073
706.7831,100.082
707.7474,100.084
708.7116,100.066
709.6758,100.024
710.6401,99.9604
711.6043,99.8788
712.5685,99.782
713.5328,99.6696
714.4970,99.5388
715.4612,99.6238
716.4255,99.4404
717.3897,99.2566
718.3539,99.0899
719.3182,98.9556
720.2824,98.861
721.2466,98.8019
722.2109,98.7657
723.1751,98.7382
724.1393,98.7092
725.1036,98.674
726.0678,98.6328
727.0320,98.5906
727.9963,98.6082
728.9605,98.7053
729.9247,98.835
730.8890,99.0018
731.8532,99.1987
732.8174,99.406
733.7817,99.5986
734.7459,99.7546
735.7101,99.863
736.6744,99.9256
737.6386,99.953
738.6028,99.9597
739.5671,99.9596
740.5313,99.9642
741.4955,99.981
742.4598,100.01
743.4240,100.045
744.3882,100.07
745.3525,100.072
746.3167,100.048
747.2809,100.007
748.2452,99.9682
749.2094,99.9481
750.1736,99.9511
751.1379,99.9652
752.1021,99.9695
753.0663,99.9482
754.0306,99.9006
754.9948,99.8421
755.9590,99.7951
756.9233,99.7766
757.8875,99.7911
758.8517,99.8317
759.8160,99.8865
760.7802,99.946
761.7444,100.004
762.7087,100.056
763.6729,100.097
764.6371,100.124
765.6014,100.14
766.5656,100.158
767.5298,100.194
768.4941,100.263
769.4583,100.365
770.4225,100.481
771.3868,100.583
772.3510,100.642
773.3152,100.647
774.2795,100.604
775.2437,100.532
776.2079,100.456
777.1722,100.391
778.1364,100.344
779.1006,100.315
780.0649,100.298
781.0291,100.291
781.9933,100.291
782.9576,100.296
783.9218,100.305
784.8860,100.312
785.8503,100.314
786.8145,100.305
787.7787,100.279
788.7430,100.235
789.7072,100.181
790.6714,100.128
791.6357,100.086
792.5999,100.061
793.5641,100.047
794.5284,100.031
795.4926,99.999
796.4568,99.9449
797.4211,99.8748
798.3853,99.8011
799.3495,99.7337
800.3138,99.6722
801.2780,99.6054
802.2422,99.5174
803.2065,99.396
804.1707,99.2389
805.1349,99.0543
806.0992,98.8558
807.0634,98.6563
808.0276,98.4627
808.9919,98.2747
809.9561,98.087
810.9203,97.8936
811.8846,97.6923
812.8488,97.487
813.8130,97.2866
814.7773,97.1023
815.7415,96.9436
816.7057,96.8149
817.6700,96.7152
818.6342,96.6399
819.5984,96.5837
820.5627,96.5434
821.5269,96.5192
822.4911,96.5132
823.4554,96.5267
824.4196,96.5576
825.3839,96.5988
826.3481,96.6399
827.3123,96.669
828.2766,96.6762
829.2408,96.6546
830.2050,96.6006
831.1693,96.5118
832.1335,96.3864
833.0977,96.2219
834.0620,96.016
835.0262,95.7672
835.9904,95.4755
836.9547,95.1437
837.9189,94.7783
838.8831,94.3895
839.8474,93.991
840.8116,93.5979
841.7758,93.2235
842.7401,92.8775
843.7043,92.5645
844.6685,92.2853
845.6328,92.039
846.5970,91.8256
847.5612,91.6477
848.5255,91.5101
849.4897,91.4187
850.4539,91.3777
851.4182,91.387
852.3824,91.4402
853.3466,91.5256
854.3109,91.6298
855.2751,91.7419
856.2393,91.8565
857.2036,91.9738
858.1678,92.0969
859.1320,92.2286
860.0963,92.3707
861.0605,92.5256
862.0247,92.6987
862.9890,92.8992
863.9532,93.137
864.9174,93.4185
865.8817,93.744
866.8459,94.1073
867.8101,94.4999
868.7744,94.9141
869.7386,95.3452
870.7028,95.789
871.6671,96.2399
872.6313,96.6891
873.5955,97.1259
874.5598,97.5403
875.5240,97.9246
876.4882,98.2734
877.4525,98.5825
878.4167,98.8477
879.3809,99.0663
880.3452,99.2389
881.3094,99.3029
882.2736,99.294
883.2379,99.2589
884.2021,99.2029
885.1663,99.1285
886.1306,99.0371
887.0948,98.931
888.0590,98.8132
889.0233,98.686
889.9875,98.5491
890.9517,98.399
891.9160,98.2312
892.8802,98.0429
893.8444,97.8342
894.8087,97.607
895.7729,97.362
896.7371,97.0965
897.7014,96.8046
898.6656,96.481
899.6298,96.1244
900.5941,95.7401
901.5583,95.3384
902.5225,94.9313
903.4868,94.528
904.4510,94.1328
905.4152,93.7454
906.3795,93.3625
907.3437,92.9806
908.3079,92.5982
909.2722,92.218
910.2364,91.8472
911.2006,91.4971
912.1649,91.1803
913.1291,90.9078
914.0933,90.6853
915.0576,90.5121
916.0218,90.3824
916.9860,90.2889
917.9503,90.2271
918.9145,90.1968
919.8787,90.202
920.8430,90.2473
921.8072,90.3344
922.7714,90.4606
923.7357,90.6202
924.6999,90.8084
925.6641,91.0252
926.6284,91.2768
927.5926,91.5739
928.5568,91.9273
929.5211,92.3435
930.4853,92.8227
931.4495,93.3602
932.4138,93.9487
933.3780,94.5801
934.3422,95.2442
935.3065,95.9251
936.2707,96.5993
937.2349,97.2367
938.1992,97.8068
939.1634,98.2868
940.1276,98.6669
941.0919,98.9506
942.0561,99.1492
943.0203,99.274
943.9846,99.3312
944.9488,99.3212
945.9130,99.2431
946.8773,99.1852
947.8415,99.2992
948.8057,99.3674
949.7700,99.4029
950.7342,99.4164
951.6984,99.4135
952.6627,99.3951
953.6269,99.357
954.5911,99.2922
955.5554,99.192
956.5196,99.0479
957.4838,98.854
958.4481,98.6078
959.4123,98.3107
960.3765,97.9667
961.3408,97.5815
962.3050,97.1622
963.2692,96.7174
964.2335,96.2574
965.1977,95.7936
966.1619,95.3364
967.1262,94.8939
968.0904,94.4703
969.0546,94.0678
970.0189,93.6873
970.9831,93.3309
971.9473,93.0018
972.9116,92.7037
973.8758,92.439
974.8400,92.2068
975.8043,92.0015
976.7685,91.8129
977.7327,91.6271
978.6970,91.429
979.6612,91.205
980.6254,90.9449
981.5897,90.6428
982.5539,90.2967
983.5181,89.9075
984.4824,89.4801
985.4466,89.0244
986.4108,88.5582
987.3751,88.1072
988.3393,87.702
989.3035,87.3725
990.2678,87.1406
991.2320,87.0153
992.1962,86.9919
993.1605,87.0546
994.1247,87.183
995.0889,87.3572
996.0532,87.5607
997.0174,87.7805
997.9816,88.0048
998.9459,88.2197
999.9101,88.408
1000.8743,88.5493
1001.8386,88.6218
1002.8028,88.6054
1003.7670,88.4836
1004.7313,88.2445
1005.6955,87.881
1006.6597,87.3895
1007.6240,86.7696
1008.5882,86.0231
1009.5524,85.1539
1010.5167,84.1682
1011.4809,83.0746
1012.4451,81.8843
1013.4094,80.6118
1014.3736,79.2746
1015.3378,77.8918
1016.3021,76.4824
1017.2663,75.0632
1018.2305,73.647
1019.1948,72.2435
1020.1590,70.8617
1021.1232,69.5119
1022.0875,68.2075
1023.0517,66.9636
1024.0160,65.7955
1024.9802,64.7165
1025.9445,63.7378
1026.9087,62.8686
1027.8729,62.1178
1028.8372,61.4949
1029.8014,61.0111
1030.7656,60.6792
1031.7299,60.5133
1032.6941,60.5265
1033.6583,60.7268
1034.6226,61.1126
1035.5868,61.6689
1036.5510,62.3689
1037.5153,63.1783
1038.4795,64.0632
1039.4437,64.9961
1040.4080,65.9589
1041.3722,66.9421
1042.3364,67.9426
1043.3007,68.9611
1044.2649,70.0016
1045.2291,71.0698
1046.1934,72.1719
1047.1576,73.3125
1048.1218,74.4936
1049.0861,75.7139
1050.0503,76.9706
1051.0145,78.2597
1051.9788,79.5764
1052.9430,80.9139
1053.9072,82.2635
1054.8715,83.6155
1055.8357,84.9612
1056.7999,86.2943
1057.7642,87.6107
1058.7284,88.9055
1059.6926,90.1707
1060.6569,91.3942
1061.6211,92.5622
1062.5853,93.6626
1063.5496,94.6884
1064.5138,95.6391
1065.4780,96.5179
1066.4423,97.3291
1067.4065,98.0749
1068.3707,98.7542
1069.3350,99.3628
1070.2992,99.8945
1071.2634,100.343
1072.2277,100.7
1073.1919,100.962
1074.1561,101.125
1075.1204,100.838
1076.0846,100.203
1077.0488,99.4933
1078.0131,98.7216
1078.9773,97.9005
1079.9415,97.0409
1080.9058,96.1521
1081.8700,95.2417
1082.8342,94.3167
1083.7985,93.3839
1084.7627,92.4516
1085.7269,91.5303
1086.6912,90.6327
1087.6554,89.7721
1088.6196,88.9597
1089.5839,88.201
1090.5481,87.4945
1091.5123,86.8325
1092.4766,86.2034
1093.4408,85.5941
1094.4050,84.9923
1095.3693,84.3874
1096.3335,83.7704
1097.2977,83.1354
1098.2620,82.48
1099.2262,81.8052
1100.1904,81.1146
1101.1547,80.4124
1102.1189,79.7032
1103.0831,78.9926
1104.0474,78.289
1105.0116,77.6055
1105.9758,76.9601
1106.9401,76.375
1107.9043,75.8744
1108.8685,75.4824
1109.8328,75.2216
1110.7970,75.1114
1111.7612,75.1666
1112.7255,75.3961
1113.6897,75.8017
1114.6539,76.3785
1115.6182,77.1164
1116.5824,78.0023
1117.5466,79.0216
1118.5109,80.1593
1119.4751,81.3995
1120.4393,82.7239
1121.4036,84.1113
1122.3678,85.5375
1123.3320,86.9754
1124.2963,88.3979
1125.2605,89.7801
1126.2247,91.1014
1127.1890,92.347
1128.1532,93.5066
1129.1174,94.5731
1130.0817,95.5405
1131.0459,96.403
1132.0101,97.1557
1132.9744,97.7953
1133.9386,98.3209
1134.9028,98.734
1135.8671,99.0377
1136.8313,99.2357
1137.7955,99.3324
1138.7598,99.3333
1139.7240,99.2451
1140.6882,99.1562
1141.6525,99.2866
1142.6167,99.3487
1143.5809,99.3508
1144.5452,99.3043
1145.5094,99.2245
1146.4736,99.1295
1147.4379,99.0368
1148.4021,98.9603
1149.3663,98.9087
1150.3306,98.8867
1151.2948,98.8969
1152.2590,98.9419
1153.2233,99.0232
1154.1875,99.1392
1155.1517,99.2825
1156.1160,99.4407
1157.0802,99.5976
1158.0444,99.737
1159.0087,99.8447
1159.9729,99.9087
1160.9371,99.9198
1161.9014,99.8713
1162.8656,99.7604
1163.8298,99.5895
1164.7941,99.3658
1165.7583,99.0992
1166.7225,98.7993
1167.6868,98.4732
1168.6510,98.1246
1169.6152,97.7552
1170.5795,97.3656
1171.5437,96.9556
1172.5079,96.5239
1173.4722,96.0689
1174.4364,95.5893
1175.4006,95.0862
1176.3649,94.5643
1177.3291,94.0311
1178.2933,93.4945
1179.2576,92.961
1180.2218,92.4347
1181.1860,91.9191
1182.1503,91.4184
1183.1145,90.9386
1184.0787,90.4867
1185.0430,90.0681
1186.0072,89.6847
1186.9714,89.334
1187.9357,89.0108
1188.8999,88.7092
1189.8641,88.4242
1190.8284,88.1526
1191.7926,87.8923
1192.7568,87.6418
1193.7211,87.4001
1194.6853,87.1662
1195.6495,86.9392
1196.6138,86.7171
1197.5780,86.4968
1198.5422,86.2747
1199.5065,86.0482
1200.4707,85.817
1201.4349,85.5858
1202.3992,85.3629
1203.3634,85.1579
1204.3276,84.9797
1205.2919,84.8334
1206.2561,84.7203
1207.2203,84.6393
1208.1846,84.5892
1209.1488,84.5718
1210.1130,84.5916
1211.0773,84.6557
1212.0415,84.7701
1213.0057,84.9383
1213.9700,85.16
1214.9342,85.4323
1215.8984,85.7515
1216.8627,86.114
1217.8269,86.5157
1218.7911,86.9517
1219.7554,87.4154
1220.7196,87.8989
1221.6838,88.394
1222.6481,88.8926
1223.6123,89.387
1224.5765,89.8691
1225.5408,90.3297
1226.5050,90.7597
1227.4692,91.1505
1228.4335,91.4963
1229.3977,91.795
1230.3619,92.0493
1231.3262,92.2666
1232.2904,92.4592
1233.2546,92.6433
1234.2189,92.8374
1235.1831,93.0609
1236.1473,93.3304
1237.1116,93.6576
1238.0758,94.0462
1239.0400,94.4918
1240.0043,94.9827
1240.9685,95.5028
1241.9327,96.0346
1242.8970,96.5614
1243.8612,97.0694
1244.8254,97.5485
1245.7897,97.9931
1246.7539,98.401
1247.7181,98.7727
1248.6824,99.1096
1249.6466,99.4127
1250.6108,99.6817
1251.5751,99.9149
1252.5393,100.11
1253.5035,100.264
1254.4678,100.377
1255.4320,100.284
1256.3962,100.042
1257.3605,99.7724
1258.3247,99.4794
1259.2889,99.1679
1260.2532,98.8403
1261.2174,98.4979
1262.1816,98.1415
1263.1459,97.7728
1264.1101,97.396
1265.0743,97.0184
1266.0386,96.65
1267.0028,96.3028
1267.9670,95.9889
1268.9313,95.7197
1269.8955,95.5047
1270.8597,95.3514
1271.8240,95.2644
1272.7882,95.2449
1273.7524,95.2894
1274.7167,95.3906
1275.6809,95.5384
1276.6451,95.7222
1277.6094,95.9325
1278.5736,96.162
1279.5378,96.4053
1280.5021,96.6577
1281.4663,96.9142
1282.4305,97.1698
1283.3948,97.4207
1284.3590,97.6653
1285.3232,97.9038
1286.2875,98.1367
1287.2517,98.3625
1288.2159,98.5774
1289.1802,98.7763
1290.1444,98.956
1291.1086,99.1167
1292.0729,99.2615
1293.0371,99.3948
1294.0013,99.5194
1294.9656,99.6355
1295.9298,99.7412
1296.8940,99.8337
1297.8583,99.9105
1298.8225,99.9697
1299.7867,100.01
1300.7510,100.029
1301.7152,100.028
1302.6794,100.006
1303.6437,99.9636
1304.6079,99.9009
1305.5721,99.8348
1306.5364,99.7841
1307.5006,99.7093
1308.4648,99.6114
1309.4291,99.4931
1310.3933,99.3587
1311.3575,99.2128
1312.3218,99.0593
1313.2860,98.9013
1314.2502,98.7412
1315.2145,98.5809
1316.1787,98.4219
1317.1429,98.2649
1318.1072,98.1098
1319.0714,97.9551
1320.0356,97.7988
1320.9999,97.64
1321.9641,97.4796
1322.9283,97.3212
1323.8926,97.1708
1324.8568,97.0362
1325.8210,96.9257
1326.7853,96.8472
1327.7495,96.8077
1328.7137,96.8135
1329.6780,96.8693
1330.6422,96.9767
1331.6064,97.1306
1332.5707,97.3187
1333.5349,97.5245
1334.4991,97.7349
1335.4634,97.9462
1336.4276,98.1673
1337.3918,98.4139
1338.3561,98.6953
1339.3203,98.9998
1340.2845,99.2946
1341.2488,99.5461
1342.2130,99.7388
1343.1772,99.8767
1344.1415,99.9734
1345.1057,100.042
1346.0699,100.09
1347.0342,100.122
1347.9984,100.139
1348.9626,100.14
1349.9269,100.125
1350.8911,100.095
1351.8553,100.05
1352.8196,99.9946
1353.7838,99.932
1354.7480,99.8643
1355.7123,99.7903
1356.6765,99.7071
1357.6407,99.6133
1358.6050,99.5124
1359.5692,99.4131
1360.5334,99.3268
1361.4977,99.2614
1362.4619,99.2142
1363.4261,99.1722
1364.3904,99.123
1365.3546,99.0636
1366.3188,98.9988
1367.2831,98.9343
1368.2473,98.8718
1369.2115,98.8095
1370.1758,98.746
1371.1400,98.6852
1372.1042,98.6369
1373.0685,98.6126
1374.0327,98.6164
1374.9969,98.6397
1375.9612,98.6677
1376.9254,98.6925
1377.8896,98.7188
1378.8539,98.7569
1379.8181,98.8124
1380.7823,98.8799
1381.7466,98.946
1382.7108,99.0001
1383.6750,99.043
1384.6393,99.0861
1385.6035,99.1425
1386.5677,99.213
1387.5320,99.2775
1388.4962,99.3066
1389.4604,99.285
1390.4247,99.2178
1391.3889,99.1472
1392.3531,99.0667
1393.3174,98.9827
1394.2816,98.9005
1395.2458,98.8195
1396.2101,98.7344
1397.1743,98.6378
1398.1385,98.5242
1399.1028,98.3912
1400.0670,98.2398
1401.0313,98.0732
1401.9955,97.8945
1402.9597,97.7057
1403.9240,97.5065
1404.8882,97.295
1405.8524,97.0698
1406.8167,96.8311
1407.7809,96.5788
1408.7451,96.3114
1409.7094,96.0245
1410.6736,95.7144
1411.6378,95.3828
1412.6021,95.0377
1413.5663,94.6881
1414.5305,94.3358
1415.4948,93.9717
1416.4590,93.5786
1417.4232,93.1454
1418.3875,92.6858
1419.3517,92.2388
1420.3159,91.8355
1421.2802,91.4783
1422.2444,91.1554
1423.2086,90.86
1424.1729,90.5952
1425.1371,90.3716
1426.1013,90.2038
1427.0656,90.1107
1428.0298,90.1138
1428.9940,90.2253
1429.9583,90.4294
1430.9225,90.6812
1431.8867,90.9351
1432.8510,91.1757
1433.8152,91.4223
1434.7794,91.7048
1435.7437,92.0206
1436.7079,92.3007
1437.6721,92.444
1438.6364,92.4029
1439.6006,92.2021
1440.5648,91.889
1441.5291,91.4986
1442.4933,91.0506
1443.4575,90.5574
1444.4218,90.0278
1445.3860,89.4685
1446.3502,88.8864
1447.3145,88.2967
1448.2787,87.7251
1449.2429,87.1997
1450.2072,86.7353
1451.1714,86.3304
1452.1356,85.9754
1453.0999,85.6622
1454.0641,85.3897
1455.0283,85.1706
1455.9926,85.0371
1456.9568,85.0114
1457.9210,85.0382
1458.8853,85.0281
1459.8495,84.9651
1460.8137,84.8956
1461.7780,84.8913
1462.7422,85.0468
1463.7064,85.4642
1464.6707,86.1781
1465.6349,87.0775
1466.5991,87.9756
1467.5634,88.7715
1468.5276,89.4952
1469.4918,90.2532
1470.4561,91.1805
1471.4203,92.3919
1472.3845,93.8721
1473.3488,95.3743
1474.3130,96.5863
1475.2772,97.4161
1476.2415,97.965
1477.2057,98.3485
1478.1699,98.6296
1479.1342,98.8353
1480.0984,98.9803
1481.0626,99.0778
1482.0269,99.1374
1482.9911,99.1633
1483.9553,99.1568
1484.9196,99.1202
1485.8838,99.0581
1486.8480,98.9748
1487.8123,98.813
1488.7765,98.505
1489.7407,98.1603
1490.7050,97.7781
1491.6692,97.3675
1492.6334,96.939
1493.5977,96.498
1494.5619,96.0461
1495.5261,95.5866
1496.4904,95.1298
1497.4546,94.6899
1498.4188,94.2689
1499.3831,93.8536
1500.3473,93.4332
1501.3115,93.0087
1502.2758,92.5838
1503.2400,92.1499
1504.2042,91.6663
1505.1685,91.0334
1506.1327,90.1081
1507.0969,88.8971
1508.0612,87.7014
1509.0254,86.7232
1509.9896,85.8962
1510.9539,85.1272
1511.9181,84.3996
1512.8823,83.7685
1513.8466,83.3393
1514.8108,83.2231
1515.7750,83.4694
1516.7393,84.031
1517.7035,84.8293
1518.6677,85.8684
1519.6320,87.2515
1520.5962,89.0297
1521.5604,91.0193
1522.5247,92.8698
1523.4889,94.3579
1524.4531,95.5257
1525.4174,96.5395
1526.3816,97.4976
1527.3458,98.3681
1528.3101,99.0692
1529.2743,99.5701
1530.2385,99.9216
1531.2028,100.222
1532.1670,100.553
1533.1312,100.909
1534.0955,101.198
1535.0597,101.334
1536.0239,101.318
1536.9882,101.211
1537.9524,101.082
1538.9166,100.987
1539.8809,100.961
1540.8451,100.976
1541.8093,100.945
1542.7736,100.834
1543.7378,100.674
1544.7020,100.492
1545.6663,100.294
1546.6305,100.08
1547.5947,99.8542
1548.5590,99.6228
1549.5232,99.3897
1550.4874,99.425
1551.4517,99.4465
1552.4159,99.4447
1553.3801,99.4257
1554.3444,99.4028
1555.3086,99.385
1556.2728,99.368
1557.2371,99.3362
1558.2013,99.2839
1559.1655,99.2243
1560.1298,99.1517
1561.0940,99.0511
1562.0582,98.9252
1563.0225,98.7851
1563.9867,98.6403
1564.9509,98.4967
1565.9152,98.3526
1566.8794,98.1933
1567.8436,97.9922
1568.8079,97.7329
1569.7721,97.4345
1570.7363,97.1417
1571.7006,96.8834
1572.6648,96.6505
1573.6290,96.3984
1574.5933,96.0633
1575.5575,95.6038
1576.5217,95.0627
1577.4860,94.5466
1578.4502,94.1114
1579.4144,93.7292
1580.3787,93.3484
1581.3429,92.9356
1582.3071,92.4872
1583.2714,92.0232
1584.2356,91.571
1585.1998,91.1459
1586.1641,90.7481
1587.1283,90.3737
1588.0925,90.0251
1589.0568,89.7101
1590.0210,89.433
1590.9852,89.1899
1591.9495,88.9721
1592.9137,88.7725
1593.8779,88.5885
1594.8422,88.4193
1595.8064,88.2627
1596.7706,88.1164
1597.7349,87.9805
1598.6991,87.8602
1599.6633,87.763
1600.6276,87.6966
1601.5918,87.6653
1602.5560,87.6689
1603.5203,87.7013
1604.4845,87.7535
1605.4487,87.8173
1606.4130,87.893
1607.3772,87.9919
1608.3414,88.1322
1609.3057,88.3234
1610.2699,88.555
1611.2341,88.806
1612.1984,89.0693
1613.1626,89.3711
1614.1268,89.7777
1615.0911,90.3741
1616.0553,91.1793
1617.0195,92.058
1617.9838,92.8132
1618.9480,93.3762
1619.9122,93.8175
1620.8765,94.244
1621.8407,94.729
1622.8049,95.2794
1623.7692,95.8348
1624.7334,96.3198
1625.6976,96.7102
1626.6619,97.0356
1627.6261,97.3313
1628.5903,97.6033
1629.5546,97.8353
1630.5188,98.0164
1631.4830,98.1553
1632.4473,98.2741
1633.4115,98.3977
1634.3757,98.5472
1635.3400,98.729
1636.3042,98.9125
1637.2684,99.0487
1638.2327,99.1235
1639.1969,99.1565
1640.1611,99.1702
1641.1254,99.1092
1642.0896,98.9775
1643.0538,98.8491
1644.0181,98.7188
1644.9823,98.576
1645.9465,98.4138
1646.9108,98.2393
1647.8750,98.0679
1648.8392,97.9104
1649.8035,97.7687
1650.7677,97.6326
1651.7319,97.4804
1652.6962,97.2967
1653.6604,97.0924
1654.6246,96.8761
1655.5889,96.6433
1656.5531,96.4029
1657.5173,96.1705
1658.4816,95.9547
1659.4458,95.756
1660.4100,95.5686
1661.3743,95.3847
1662.3385,95.1977
1663.3027,95.0048
1664.2670,94.8083
1665.2312,94.6128
1666.1954,94.4199
1667.1597,94.2272
1668.1239,94.032
1669.0881,93.8386
1670.0524,93.6564
1671.0166,93.4886
1671.9808,93.3297
1672.9451,93.1731
1673.9093,93.0136
1674.8735,92.8429
1675.8378,92.6508
1676.8020,92.4318
1677.7662,92.1928
1678.7305,91.949
1679.6947,91.7133
1680.6589,91.4864
1681.6232,91.2523
1682.5874,90.9862
1683.5516,90.6813
1684.5159,90.3632
1685.4801,90.0513
1686.4443,89.7339
1687.4086,89.3932
1688.3728,89.0241
1689.3370,88.6365
1690.3013,88.2476
1691.2655,87.87
1692.2297,87.4999
1693.1940,87.1171
1694.1582,86.6968
1695.1224,86.2296
1696.0867,85.7389
1697.0509,85.2728
1698.0151,84.864
1698.9794,84.4972
1699.9436,84.1347
1700.9078,83.7659
1701.8721,83.4123
1702.8363,83.0979
1703.8005,82.8326
1704.7648,82.6138
1705.7290,82.4357
1706.6932,82.2936
1707.6575,82.1827
1708.6217,82.0975
1709.5859,82.0334
1710.5502,81.9872
1711.5144,81.9576
1712.4786,81.9463
1713.4429,81.963
1714.4071,82.0372
1715.3713,82.2218
1716.3356,82.5547
1717.2998,82.9743
1718.2640,83.3404
1719.2283,83.5825
1720.1925,83.7379
1721.1567,83.8751
1722.1210,84.0414
1723.0852,84.2517
1724.0494,84.4947
1725.0137,84.7471
1725.9779,84.9906
1726.9421,85.2191
1727.9064,85.435
1728.8706,85.6434
1729.8348,85.8545
1730.7991,86.0935
1731.7633,86.4064
1732.7275,86.8305
1733.6918,87.3252
1734.6560,87.7689
1735.6202,88.081
1736.5845,88.29
1737.5487,88.4766
1738.5129,88.7107
1739.4772,89.023
1740.4414,89.3973
1741.4056,89.7853
1742.3699,90.1441
1743.3341,90.4635
1744.2983,90.7591
1745.2626,91.0496
1746.2268,91.3476
1747.1910,91.666
1748.1553,92.0224
1749.1195,92.4224
1750.0837,92.8324
1751.0480,93.1902
1752.0122,93.4587
1752.9764,93.6507
1753.9407,93.807
1754.9049,93.9663
1755.8691,94.1464
1756.8334,94.3423
1757.7976,94.5382
1758.7618,94.7255
1759.7261,94.9115
1760.6903,95.1079
1761.6545,95.3131
1762.6188,95.5077
1763.5830,95.6708
1764.5472,95.7991
1765.5115,95.906
1766.4757,96.0094
1767.4399,96.1204
1768.4042,96.2416
1769.3684,96.3752
1770.3326,96.5329
1771.2969,96.7333
1772.2611,96.9771
1773.2253,97.2307
1774.1896,97.4527
1775.1538,97.631
1776.1180,97.7841
1777.0823,97.9398
1778.0465,98.1158
1779.0107,98.3115
1779.9750,98.5094
1780.9392,98.6876
1781.9034,98.8351
1782.8677,98.9554
1783.8319,99.0574
1784.7961,99.1441
1785.7604,99.2124
1786.7246,99.2599
1787.6888,99.2904
1788.6531,99.3134
1789.6173,99.3393
1790.5815,99.3758
1791.5458,99.4239
1792.5100,99.4732
1793.4742,99.5064
1794.4385,99.5155
1795.4027,99.5076
1796.3669,99.4963
1797.3312,99.4922
1798.2954,99.4992
1799.2596,99.5153
1800.2239,99.5347
1801.1881,99.55
1802.1523,99.5561
1803.1166,99.5517
1804.0808,99.5387
1805.0450,99.5205
1806.0093,99.5356
1806.9735,99.575
1807.9377,99.6159
1808.9020,99.6598
1809.8662,99.7071
1810.8304,99.7562
1811.7947,99.8037
1812.7589,99.8466
1813.7231,99.8841
1814.6874,99.9176
1815.6516,99.9487
1816.6158,99.9778
1817.5801,100.005
1818.5443,100.028
1819.5085,100.05
1820.4728,100.071
1821.4370,100.094
1822.4012,100.12
1823.3655,100.145
1824.3297,100.167
1825.2939,100.183
1826.2582,100.191
1827.2224,100.196
1828.1866,100.205
1829.1509,100.22
1830.1151,100.242
1831.0793,100.261
1832.0436,100.273
1833.0078,100.276
1833.9720,100.277
1834.9363,100.281
1835.9005,100.288
1836.8647,100.299
1837.8290,100.309
1838.7932,100.318
1839.7574,100.327
1840.7217,100.338
1841.6859,100.352
1842.6501,100.367
1843.6144,100.38
1844.5786,100.39
1845.5428,100.396
1846.5071,100.398
1847.4713,100.399
1848.4355,100.403
1849.3998,100.41
1850.3640,100.42
1851.3282,100.428
1852.2925,100.434
1853.2567,100.437
1854.2209,100.438
1855.1852,100.439
1856.1494,100.44
1857.1136,100.44
1858.0779,100.441
1859.0421,100.443
1860.0063,100.446
1860.9706,100.448
1861.9348,100.448
1862.8990,100.444
1863.8633,100.437
1864.8275,100.429
1865.7917,100.425
1866.7560,100.43
1867.7202,100.446
1868.6844,100.473
1869.6487,100.5
1870.6129,100.516
1871.5771,100.519
1872.5414,100.514
1873.5056,100.508
1874.4698,100.503
1875.4341,100.503
1876.3983,100.504
1877.3625,100.506
1878.3268,100.508
1879.2910,100.51
1880.2552,100.512
1881.2195,100.511
1882.1837,100.51
1883.1479,100.506
1884.1122,100.501
1885.0764,100.499
1886.0406,100.501
1887.0049,100.508
1887.9691,100.519
1888.9333,100.531
1889.8976,100.538
1890.8618,100.537
1891.8260,100.528
1892.7903,100.517
1893.7545,100.508
1894.7188,100.505
1895.6830,100.509
1896.6472,100.517
1897.6115,100.524
1898.5757,100.528
1899.5399,100.529
1900.5042,100.527
1901.4684,100.525
1902.4326,100.523
1903.3969,100.521
1904.3611,100.517
1905.3253,100.51
1906.2896,100.502
1907.2538,100.495
1908.2180,100.492
1909.1823,100.492
1910.1465,100.496
1911.1107,100.499
1912.0750,100.499
1913.0392,100.498
1914.0034,100.496
1914.9677,100.496
1915.9319,100.497
1916.8961,100.499
1917.8604,100.497
1918.8246,100.491
1919.7888,100.48
1920.7531,100.469
1921.7173,100.462
1922.6815,100.461
1923.6458,100.464
1924.6100,100.468
1925.5742,100.47
1926.5385,100.468
1927.5027,100.464
1928.4669,100.46
1929.4312,100.456
1930.3954,100.453
1931.3596,100.449
1932.3239,100.443
1933.2881,100.437
1934.2523,100.429
1935.2166,100.422
1936.1808,100.415
1937.1450,100.406
1938.1093,100.397
1939.0735,100.389
1940.0377,100.382
1941.0020,100.378
1941.9662,100.376
1942.9304,100.376
1943.8947,100.376
1944.8589,100.376
1945.8231,100.375
1946.7874,100.376
1947.7516,100.378
1948.7158,100.379
1949.6801,100.378
1950.6443,100.374
1951.6085,100.367
1952.5728,100.361
1953.5370,100.358
1954.5012,100.356
1955.4655,100.357
1956.4297,100.359
1957.3939,100.36
1958.3582,100.362
1959.3224,100.363
1960.2866,100.364
1961.2509,100.364
1962.2151,100.361
1963.1793,100.356
1964.1436,100.351
1965.1078,100.349
1966.0720,100.353
1967.0363,100.363
1968.0005,100.378
1968.9647,100.391
1969.9290,100.4
1970.8932,100.402
1971.8574,100.399
1972.8217,100.394
1973.7859,100.389
1974.7501,100.386
1975.7144,100.386
1976.6786,100.387
1977.6428,100.389
1978.6071,100.39
1979.5713,100.391
1980.5355,100.392
1981.4998,100.392
1982.4640,100.392
1983.4282,100.391
1984.3925,100.389
1985.3567,100.387
1986.3209,100.385
1987.2852,100.384
1988.2494,100.382
1989.2136,100.38
1990.1779,100.379
1991.1421,100.379
1992.1063,100.379
1993.0706,100.378
1994.0348,100.376
1994.9990,100.372
1995.9633,100.366
1996.9275,100.36
1997.8917,100.356
1998.8560,100.355
1999.8202,100.356
2000.7844,100.358
2001.7487,100.359
2002.7129,100.357
2003.6771,100.351
2004.6414,100.341
2005.6056,100.33
2006.5698,100.319
2007.5341,100.311
2008.4983,100.307
2009.4625,100.305
2010.4268,100.305
2011.3910,100.305
2012.3552,100.303
2013.3195,100.299
2014.2837,100.293
2015.2479,100.287
2016.2122,100.282
2017.1764,100.278
2018.1406,100.275
2019.1049,100.272
2020.0691,100.268
2021.0333,100.262
2021.9976,100.257
2022.9618,100.252
2023.9260,100.25
2024.8903,100.248
2025.8545,100.247
2026.8187,100.245
2027.7830,100.241
2028.7472,100.235
2029.7114,100.229
2030.6757,100.223
2031.6399,100.217
2032.6041,100.211
2033.5684,100.206
2034.5326,100.202
2035.4968,100.197
2036.4611,100.194
2037.4253,100.191
2038.3895,100.189
2039.3538,100.187
2040.3180,100.186
2041.2822,100.185
2042.2465,100.184
2043.2107,100.182
2044.1749,100.179
2045.1392,100.173
2046.1034,100.164
2047.0676,100.155
2048.0320,100.146
2048.9961,100.138
2049.9604,100.131
2050.9246,100.127
2051.8889,100.123
2052.8530,100.121
2053.8174,100.118
2054.7815,100.115
2055.7458,100.113
2056.7100,100.111
2057.6743,100.111
2058.6384,100.11
2059.6028,100.108
2060.5669,100.103
2061.5313,100.094
2062.4954,100.084
2063.4597,100.075
2064.4238,100.071
2065.3882,100.073
2066.3523,100.08
2067.3167,100.089
2068.2808,100.098
2069.2451,100.106
2070.2092,100.111
2071.1736,100.114
2072.1377,100.116
2073.1021,100.116
2074.0662,100.115
2075.0305,100.113
2075.9946,100.111
2076.9590,100.11
2077.9231,100.111
2078.8875,100.113
2079.8516,100.115
2080.8159,100.117
2081.7800,100.119
2082.7444,100.121
2083.7085,100.123
2084.6729,100.126
2085.6370,100.13
2086.6013,100.135
2087.5654,100.14
2088.5298,100.145
2089.4939,100.148
2090.4583,100.149
2091.4224,100.147
2092.3867,100.145
2093.3508,100.144
2094.3152,100.145
2095.2793,100.149
2096.2437,100.155
2097.2078,100.161
2098.1721,100.164
2099.1362,100.165
2100.1006,100.165
2101.0647,100.164
2102.0291,100.165
2102.9932,100.166
2103.9575,100.167
2104.9216,100.168
2105.8860,100.168
2106.8501,100.167
2107.8145,100.164
2108.7786,100.161
2109.7429,100.159
2110.7070,100.157
2111.6714,100.158
2112.6355,100.161
2113.5999,100.165
2114.5640,100.168
2115.5283,100.17
2116.4924,100.169
2117.4568,100.166
2118.4209,100.162
2119.3853,100.157
2120.3494,100.154
2121.3137,100.153
2122.2778,100.155
2123.2422,100.156
2124.2063,100.156
2125.1707,100.155
2126.1348,100.153
2127.0991,100.152
2128.0632,100.153
2129.0276,100.156
2129.9917,100.161
2130.9561,100.165
2131.9202,100.165
2132.8845,100.162
2133.8486,100.156
2134.8130,100.152
2135.7771,100.151
2136.7415,100.154
2137.7056,100.161
2138.6699,100.168
2139.6340,100.173
2140.5984,100.175
2141.5625,100.174
2142.5269,100.172
2143.4910,100.171
2144.4553,100.173
2145.4194,100.176
2146.3838,100.179
2147.3479,100.181
2148.3123,100.182
2149.2764,100.182
2150.2407,100.181
2151.2048,100.18
2152.1692,100.18
2153.1333,100.18
2154.0977,100.181
2155.0618,100.182
2156.0261,100.185
2156.9902,100.19
2157.9546,100.196
2158.9187,100.203
2159.8831,100.211
2160.8472,100.218
2161.8115,100.225
2162.7756,100.231
2163.7400,100.236
2164.7041,100.239
2165.6685,100.242
2166.6326,100.243
2167.5969,100.244
2168.5610,100.243
2169.5254,100.243
2170.4895,100.244
2171.4539,100.246
2172.4180,100.249
2173.3823,100.253
2174.3464,100.255
2175.3108,100.256
2176.2749,100.255
2177.2393,100.254
2178.2034,100.254
2179.1677,100.256
2180.1318,100.257
2181.0962,100.258
2182.0603,100.258
2183.0247,100.256
2183.9888,100.252
2184.9531,100.249
2185.9172,100.248
2186.8816,100.249
2187.8457,100.251
2188.8101,100.256
2189.7742,100.26
2190.7385,100.265
2191.7026,100.269
2192.6670,100.272
2193.6311,100.273
2194.5955,100.272
2195.5596,100.27
2196.5239,100.267
2197.4880,100.263
2198.4524,100.261
2199.4165,100.26
2200.3809,100.259
2201.3450,100.258
2202.3093,100.258
2203.2734,100.258
2204.2378,100.259
2205.2019,100.26
2206.1663,100.26
2207.1304,100.259
2208.0947,100.259
2209.0588,100.258
2210.0232,100.256
2210.9873,100.254
2211.9517,100.251
2212.9158,100.246
2213.8801,100.24
2214.8442,100.234
2215.8086,100.23
2216.7727,100.228
2217.7371,100.227
2218.7012,100.224
2219.6655,100.221
2220.6296,100.218
2221.5940,100.216
2222.5581,100.216
2223.5225,100.219
2224.4866,100.221
2225.4509,100.222
2226.4150,100.22
2227.3794,100.215
2228.3435,100.206
2229.3079,100.195
2230.2720,100.184
2231.2363,100.173
2232.2004,100.163
2233.1648,100.155
2234.1289,100.15
2235.0933,100.149
2236.0574,100.15
2237.0217,100.152
2237.9858,100.154
2238.9502,100.153
2239.9143,100.15
2240.8787,100.145
2241.8428,100.139
2242.8071,100.133
2243.7712,100.129
2244.7356,100.125
2245.6997,100.122
2246.6641,100.119
2247.6282,100.116
2248.5925,100.113
2249.5566,100.108
2250.5210,100.103
2251.4851,100.096
2252.4495,100.087
2253.4136,100.076
2254.3779,100.065
2255.3420,100.055
2256.3064,100.046
2257.2705,100.039
2258.2349,100.034
2259.1990,100.03
2260.1633,100.025
2261.1274,100.019
2262.0918,100.012
2263.0559,100.003
2264.0203,99.9949
2264.9844,99.989
2265.9487,99.9859
2266.9128,99.9843
2267.8772,99.9818
2268.8413,99.9762
2269.8057,99.9672
2270.7698,99.9562
2271.7341,99.9463
2272.6982,99.94
2273.6626,99.9381
2274.6267,99.9395
2275.5911,99.9415
2276.5552,99.9418
2277.5195,99.939
2278.4836,99.933
2279.4480,99.9247
2280.4121,99.9154
2281.3765,99.9063
2282.3406,99.898
2283.3049,99.89
2284.2690,99.8817
2285.2334,99.8716
2286.1975,99.8589
2287.1619,99.8432
2288.1260,99.8251
2289.0903,99.8056
2290.0544,99.7858
2291.0188,99.7664
2291.9829,99.748
2292.9473,99.7313
2293.9114,99.7172
2294.8757,99.7062
2295.8398,99.6988
2296.8042,99.695
2297.7683,99.6947
2298.7327,99.6976
2299.6968,99.7034
2300.6611,99.7118
2301.6252,99.7217
2302.5896,99.7321
2303.5537,99.7418
2304.5181,99.7494
2305.4822,99.754
2306.4465,99.7556
2307.4106,99.755
2308.3750,99.7545
2309.3391,99.7575
2310.3035,99.7671
2311.2676,99.7849
2312.2319,99.8101
2313.1960,99.8397
2314.1604,99.87
2315.1245,99.8982
2316.0889,99.9237
2317.0530,99.9467
2318.0173,99.9672
2318.9814,99.9832
2319.9458,99.9895
2320.9099,99.9782
2321.8743,99.9417
2322.8384,99.8783
2323.8027,99.7958
2324.7668,99.7119
2325.7312,99.6476
2326.6953,99.6192
2327.6597,99.6305
2328.6238,99.6694
2329.5881,99.7116
2330.5522,99.73
2331.5166,99.7186
2332.4807,99.6716
2333.4451,99.6018
2334.4092,99.5327
2335.3735,99.4833
2336.3376,99.4608
2337.3020,99.4591
2338.2661,99.4627
2339.2305,99.4567
2340.1946,99.4383
2341.1589,99.4254
2342.1230,99.4528
2343.0874,99.5445
2344.0515,99.6718
2345.0159,99.7596
2345.9800,99.7571
2346.9443,99.6828
2347.9084,99.5961
2348.8728,99.5495
2349.8369,99.5617
2350.8013,99.6144
2351.7654,99.6632
2352.7297,99.6653
2353.6938,99.6096
2354.6582,99.5237
2355.6223,99.4431
2356.5867,99.3827
2357.5508,99.3412
2358.5151,99.3168
2359.4792,99.3083
2360.4436,99.3098
2361.4077,99.3146
2362.3721,99.3272
2363.3362,99.3647
2364.3005,99.4446
2365.2646,99.5696
2366.2290,99.7248
2367.1931,99.8868
2368.1575,100.034
2369.1216,100.155
2370.0859,100.247
2371.0500,100.312
2372.0144,100.357
2372.9785,100.385
2373.9429,100.397
2374.9070,100.388
2375.8713,100.358
2376.8354,100.307
2377.7998,100.244
2378.7639,100.177
2379.7283,100.115
2380.6924,100.064
2381.6567,100.025
2382.6208,99.9977
2383.5852,99.9802
2384.5493,99.9707
2385.5137,99.9679
2386.4778,99.9705
2387.4421,99.9766
2388.4063,99.9846
2389.3706,99.9924
2390.3347,99.999
2391.2991,100.004
2392.2632,100.008
2393.2275,100.012
2394.1917,100.015
2395.1560,100.017
2396.1201,100.019
2397.0845,100.02
2398.0486,100.022
2399.0129,100.026
2399.9771,100.03
2400.9414,100.033
2401.9055,100.035
2402.8699,100.035
2403.8340,100.034
2404.7983,100.035
2405.7625,100.039
2406.7268,100.044
2407.6909,100.048
2408.6553,100.05
2409.6194,100.047
2410.5837,100.041
2411.5479,100.035
2412.5122,100.031
2413.4763,100.03
2414.4407,100.032
2415.4048,100.037
2416.3691,100.042
2417.3333,100.048
2418.2976,100.055
2419.2617,100.06
2420.2261,100.064
2421.1902,100.064
2422.1545,100.06
2423.1187,100.054
2424.0830,100.046
2425.0471,100.041
2426.0115,100.04
2426.9756,100.043
2427.9399,100.048
2428.9041,100.054
2429.8684,100.059
2430.8325,100.062
2431.7969,100.063
2432.7610,100.063
2433.7253,100.062
2434.6895,100.06
2435.6538,100.058
2436.6179,100.054
2437.5823,100.05
2438.5464,100.047
2439.5107,100.046
2440.4749,100.048
2441.4392,100.053
2442.4033,100.059
2443.3677,100.065
2444.3318,100.068
2445.2961,100.067
2446.2603,100.064
2447.2246,100.061
2448.1887,100.057
2449.1531,100.053
2450.1172,100.049
2451.0815,100.045
2452.0457,100.039
2453.0100,100.034
2453.9741,100.031
2454.9385,100.03
2455.9026,100.03
2456.8669,100.032
2457.8311,100.032
2458.7954,100.031
2459.7595,100.028
2460.7239,100.024
2461.6880,100.019
2462.6523,100.015
2463.6165,100.01
2464.5808,100.005
2465.5449,99.9998
2466.5093,99.9958
2467.4734,99.9929
2468.4377,99.9911
2469.4019,99.9897
2470.3662,99.9881
2471.3303,99.9863
2472.2947,99.9846
2473.2588,99.9833
2474.2231,99.9823
2475.1873,99.981
2476.1516,99.9789
2477.1157,99.9759
2478.0801,99.9728
2479.0442,99.9704
2480.0085,99.969
2480.9727,99.9682
2481.9370,99.9668
2482.9011,99.9641
2483.8655,99.9597
2484.8296,99.9545
2485.7939,99.9498
2486.7581,99.9468
2487.7224,99.9462
2488.6865,99.9477
2489.6509,99.9502
2490.6150,99.9521
2491.5793,99.9518
2492.5435,99.9484
2493.5078,99.9424
2494.4719,99.9356
2495.4363,99.9305
2496.4004,99.9291
2497.3647,99.9316
2498.3289,99.9363
2499.2932,99.9405
2500.2573,99.942
2501.2217,99.9403
2502.1858,99.9365
2503.1501,99.9325
2504.1143,99.9297
2505.0786,99.9282
2506.0427,99.9274
2507.0071,99.9263
2507.9712,99.9247
2508.9355,99.9225
2509.8997,99.9204
2510.8640,99.9186
2511.8281,99.9173
2512.7925,99.9169
2513.7566,99.9179
2514.7209,99.9211
2515.6851,99.9264
2516.6494,99.9331
2517.6135,99.9393
2518.5779,99.9432
2519.5420,99.9435
2520.5063,99.9403
2521.4705,99.9352
2522.4348,99.9298
2523.3989,99.9256
2524.3633,99.9233
2525.3274,99.9226
2526.2917,99.9231
2527.2559,99.9241
2528.2202,99.9252
2529.1843,99.9257
2530.1487,99.9252
2531.1128,99.9236
2532.0771,99.9211
2533.0413,99.9183
2534.0056,99.9158
2534.9697,99.9141
2535.9341,99.913
2536.8982,99.912
2537.8625,99.9108
2538.8267,99.9096
2539.7910,99.9087
2540.7551,99.9088
2541.7195,99.9103
2542.6836,99.9133
2543.6479,99.9174
2544.6121,99.922
2545.5764,99.9261
2546.5405,99.9288
2547.5049,99.9296
2548.4690,99.9288
2549.4333,99.9274
2550.3975,99.9266
2551.3618,99.9274
2552.3259,99.93
2553.2903,99.9341
2554.2544,99.9391
2555.2188,99.9444
2556.1829,99.9496
2557.1472,99.9546
2558.1113,99.9593
2559.0757,99.9638
2560.0398,99.9676
2561.0042,99.9702
2561.9683,99.9711
2562.9326,99.9697
2563.8967,99.9665
2564.8611,99.9624
2565.8252,99.9589
2566.7896,99.9573
2567.7537,99.9581
2568.7180,99.9608
2569.6821,99.9643
2570.6465,99.9674
2571.6106,99.9694
2572.5750,99.9701
2573.5391,99.9697
2574.5034,99.9687
2575.4675,99.9678
2576.4319,99.9676
2577.3960,99.969
2578.3604,99.9726
2579.3245,99.9782
2580.2888,99.9848
2581.2529,99.9906
2582.2173,99.994
2583.1814,99.9939
2584.1458,99.9904
2585.1099,99.9845
2586.0742,99.9779
2587.0383,99.9721
2588.0027,99.9678
2588.9668,99.965
2589.9312,99.9625
2590.8953,99.9592
2591.8596,99.9543
2592.8237,99.9477
2593.7881,99.9405
2594.7522,99.9341
2595.7166,99.9298
2596.6807,99.9281
2597.6450,99.9286
2598.6091,99.9304
2599.5735,99.932
2600.5376,99.9328
2601.5020,99.9326
2602.4661,99.9317
2603.4304,99.931
2604.3945,99.931
2605.3589,99.9323
2606.3230,99.9347
2607.2874,99.9377
2608.2515,99.9406
2609.2158,99.9427
2610.1799,99.9435
2611.1443,99.9426
2612.1084,99.9405
2613.0728,99.9375
2614.0369,99.9343
2615.0012,99.9318
2615.9653,99.9306
2616.9297,99.9312
2617.8938,99.9338
2618.8582,99.9375
2619.8223,99.941
2620.7866,99.9426
2621.7507,99.941
2622.7151,99.9364
2623.6792,99.9301
2624.6436,99.9241
2625.6077,99.9205
2626.5720,99.92
2627.5361,99.9218
2628.5005,99.9241
2629.4646,99.9255
2630.4290,99.9288
2631.3931,99.9305
2632.3574,99.9318
2633.3215,99.9339
2634.2859,99.937
2635.2500,99.9409
2636.2144,99.9448
2637.1785,99.9485
2638.1428,99.9523
2639.1069,99.9573
2640.0713,99.964
2641.0354,99.9729
2641.9998,99.9831
2642.9639,99.9937
2643.9282,100.003
2644.8923,100.011
2645.8567,100.018
2646.8208,100.022
2647.7852,100.026
2648.7493,100.03
2649.7136,100.034
2650.6777,100.038
2651.6421,100.043
2652.6062,100.05
2653.5706,100.057
2654.5347,100.067
2655.4990,100.079
2656.4631,100.092
2657.4275,100.105
2658.3916,100.117
2659.3560,100.128
2660.3201,100.138
2661.2844,100.148
2662.2485,100.158
2663.2129,100.17
2664.1770,100.184
2665.1414,100.199
2666.1055,100.217
2667.0698,100.234
2668.0339,100.251
2668.9983,100.266
2669.9624,100.28
2670.9268,100.294
2671.8909,100.309
2672.8552,100.324
2673.8193,100.34
2674.7837,100.357
2675.7478,100.372
2676.7122,100.386
2677.6763,100.395
2678.6406,100.4
2679.6047,100.4
2680.5691,100.398
2681.5332,100.397
2682.4976,100.4
2683.4617,100.406
2684.4260,100.417
2685.3901,100.428
2686.3545,100.436
2687.3186,100.442
2688.2830,100.446
2689.2471,100.45
2690.2114,100.458
2691.1755,100.469
2692.1399,100.484
2693.1040,100.497
2694.0684,100.508
2695.0325,100.514
2695.9968,100.515
2696.9609,100.513
2697.9253,100.509
2698.8894,100.505
2699.8538,100.504
2700.8179,100.506
2701.7822,100.512
2702.7463,100.52
2703.7107,100.527
2704.6748,100.533
2705.6392,100.534
2706.6033,100.533
2707.5676,100.529
2708.5317,100.524
2709.4961,100.52
2710.4602,100.519
2711.4246,100.519
2712.3887,100.519
2713.3530,100.516
2714.3171,100.51
2715.2815,100.5
2716.2456,100.488
2717.2100,100.477
2718.1741,100.47
2719.1384,100.47
2720.1025,100.475
2721.0669,100.482
2722.0310,100.488
2722.9954,100.489
2723.9595,100.482
2724.9238,100.471
2725.8879,100.459
2726.8523,100.448
2727.8164,100.441
2728.7808,100.438
2729.7449,100.437
2730.7092,100.436
2731.6733,100.435
2732.6377,100.435
2733.6018,100.437
2734.5662,100.439
2735.5303,100.441
2736.4946,100.442
2737.4587,100.439
2738.4231,100.434
2739.3872,100.43
2740.3516,100.428
2741.3157,100.429
2742.2800,100.433
2743.2441,100.44
2744.2085,100.448
2745.1726,100.457
2746.1370,100.465
2747.1011,100.469
2748.0654,100.469
2749.0295,100.463
2749.9939,100.455
2750.9580,100.447
2751.9224,100.442
2752.8865,100.443
2753.8508,100.449
2754.8149,100.455
2755.7793,100.457
2756.7434,100.452
2757.7078,100.439
2758.6719,100.421
2759.6362,100.401
2760.6003,100.385
2761.5647,100.374
2762.5288,100.369
2763.4932,100.366
2764.4573,100.362
2765.4216,100.356
2766.3857,100.348
2767.3501,100.34
2768.3142,100.335
2769.2786,100.332
2770.2427,100.329
2771.2070,100.323
2772.1711,100.311
2773.1355,100.291
2774.0996,100.265
2775.0640,100.238
2776.0281,100.212
2776.9924,100.189
2777.9565,100.166
2778.9209,100.142
2779.8850,100.114
2780.8494,100.083
2781.8135,100.051
2782.7778,100.022
2783.7419,99.9961
2784.7063,99.9747
2785.6704,99.9554
2786.6348,99.935
2787.5989,99.9108
2788.5632,99.881
2789.5273,99.8457
2790.4917,99.8067
2791.4558,99.7667
2792.4202,99.7284
2793.3843,99.6932
2794.3486,99.6604
2795.3127,99.6277
2796.2771,99.5923
2797.2412,99.5521
2798.2056,99.507
2799.1697,99.4585
2800.1340,99.4085
2801.0981,99.3585
2802.0625,99.3087
2803.0266,99.2583
2803.9910,99.2063
2804.9551,99.1517
2805.9194,99.0939
2806.8835,99.0324
2807.8479,98.9672
2808.8120,98.8986
2809.7764,98.8267
2810.7405,98.7492
2811.7048,98.6695
2812.6689,98.5871
2813.6333,98.5009
2814.5974,98.4099
2815.5618,98.3133
2816.5259,98.2102
2817.4902,98.0995
2818.4543,97.9796
2819.4187,97.8485
2820.3828,97.7049
2821.3472,97.5484
2822.3113,97.3799
2823.2756,97.2006
2824.2397,97.0114
2825.2041,96.8124
2826.1682,96.6031
2827.1326,96.3828
2828.0967,96.1508
2829.0610,95.907
2830.0251,95.6517
2830.9895,95.3858
2831.9536,95.1113
2832.9180,94.8309
2833.8821,94.5482
2834.8464,94.2661
2835.8105,93.9864
2836.7749,93.7097
2837.7390,93.4365
2838.7034,93.1676
2839.6675,92.9048
2840.6318,92.6492
2841.5959,92.4001
2842.5603,92.1537
2843.5244,91.9049
2844.4888,91.6503
2845.4529,91.393
2846.4172,91.1438
2847.3813,90.9191
2848.3457,90.7354
2849.3098,90.6015
2850.2742,90.5153
2851.2383,90.4648
2852.2026,90.4336
2853.1667,90.4078
2854.1311,90.3806
2855.0952,90.3514
2856.0596,90.3227
2857.0237,90.2957
2857.9880,90.2683
2858.9521,90.2362
2859.9165,90.1954
2860.8806,90.144
2861.8450,90.0829
2862.8091,90.0144
2863.7734,89.9409
2864.7375,89.864
2865.7019,89.7841
2866.6660,89.7009
2867.6304,89.6138
2868.5945,89.5223
2869.5588,89.4264
2870.5229,89.3279
2871.4873,89.2298
2872.4514,89.1366
2873.4158,89.0522
2874.3799,88.9787
2875.3442,88.9155
2876.3083,88.8609
2877.2727,88.8132
2878.2368,88.7724
2879.2012,88.7403
2880.1653,88.7189
2881.1296,88.7092
2882.0938,88.7097
2883.0581,88.7178
2884.0222,88.7308
2884.9866,88.7476
2885.9507,88.7691
2886.9150,88.7965
2887.8792,88.83
2888.8435,88.868
2889.8076,88.9068
2890.7720,88.9424
2891.7361,88.9721
2892.7004,88.9948
2893.6646,89.0104
2894.6289,89.0195
2895.5930,89.0214
2896.5574,89.0146
2897.5215,88.9967
2898.4858,88.9652
2899.4500,88.9182
2900.4143,88.8549
2901.3784,88.7763
2902.3428,88.6846
2903.3069,88.5828
2904.2712,88.4726
2905.2354,88.3538
2906.1997,88.2234
2907.1638,88.0765
2908.1282,87.9078
2909.0923,87.7134
2910.0566,87.4918
2911.0208,87.2444
2911.9851,86.9763
2912.9492,86.6962
2913.9136,86.4165
2914.8777,86.1513
2915.8420,85.9134
2916.8062,85.7096
2917.7705,85.5385
2918.7346,85.3911
2919.6990,85.2546
2920.6631,85.1185
2921.6274,84.9778
2922.5916,84.8342
2923.5559,84.6926
2924.5200,84.5577
2925.4844,84.4314
2926.4485,84.3137
2927.4128,84.2048
2928.3770,84.1072
2929.3413,84.0261
2930.3054,83.9671
2931.2698,83.9344
2932.2339,83.9298
2933.1982,83.9538
2934.1624,84.0073
2935.1267,84.0924
2936.0908,84.2113
2937.0552,84.3646
2938.0193,84.55
2938.9836,84.7626
2939.9478,84.9968
2940.9121,85.2482
2941.8762,85.5145
2942.8406,85.7939
2943.8047,86.0839
2944.7690,86.3804
2945.7332,86.6785
2946.6975,86.9742
2947.6616,87.2657
2948.6260,87.5526
2949.5901,87.8346
2950.5544,88.1103
2951.5186,88.3774
2952.4829,88.6345
2953.4470,88.8828
2954.4114,89.1259
2955.3755,89.3688
2956.3398,89.6148
2957.3040,89.8644
2958.2683,90.1159
2959.2324,90.3666
2960.1968,90.6152
2961.1609,90.8626
2962.1252,91.1115
2963.0894,91.3643
2964.0537,91.6222
2965.0178,91.8843
2965.9822,92.1483
2966.9463,92.4116
2967.9106,92.6727
2968.8748,92.9307
2969.8391,93.1858
2970.8032,93.4375
2971.7676,93.685
2972.7317,93.9271
2973.6960,94.1632
2974.6602,94.3938
2975.6245,94.6206
2976.5886,94.8456
2977.5530,95.0702
2978.5171,95.2948
2979.4814,95.5186
2980.4456,95.7397
2981.4099,95.9561
2982.3740,96.1653
2983.3384,96.3657
2984.3025,96.5573
2985.2668,96.7415
2986.2310,96.9208
2987.1953,97.0972
2988.1594,97.2704
2989.1238,97.4378
2990.0879,97.5958
2991.0522,97.7421
2992.0164,97.8766
2992.9807,98.0013
2993.9448,98.1184
2994.9092,98.2287
2995.8733,98.3316
2996.8376,98.4264
2997.8018,98.5138
2998.7661,98.5959
2999.7302,98.6756
3000.6946,98.7553
3001.6587,98.837
3002.6230,98.9221
3003.5872,99.0128
3004.5515,99.1108
3005.5156,99.2158
3006.4800,99.3245
3007.4441,99.4306
3008.4084,99.5278
3009.3726,99.6132
3010.3369,99.689
3011.3010,99.7619
3012.2654,99.8385
3013.2295,99.9214
3014.1938,100.007
3015.1580,100.089
3016.1223,100.157
3017.0864,100.21
3018.0508,100.248
3019.0149,100.279
3019.9792,100.308
3020.9434,100.34
3021.9077,100.374
3022.8718,100.408
3023.8362,100.438
3024.8003,100.465
3025.7646,100.459
3026.7288,100.452
3027.6931,100.445
3028.6572,100.438
3029.6216,100.426
3030.5857,100.407
3031.5500,100.38
3032.5142,100.347
3033.4785,100.311
3034.4426,100.275
3035.4070,100.241
3036.3711,100.21
3037.3354,100.182
3038.2996,100.155
3039.2639,100.127
3040.2280,100.092
3041.1924,100.048
3042.1565,99.9929
3043.1208,99.9287
3044.0850,99.8623
3045.0493,99.8012
3046.0134,99.7499
3046.9778,99.7072
3047.9419,99.6661
3048.9063,99.618
3049.8704,99.557
3050.8347,99.4835
3051.7988,99.4036
3052.7632,99.3252
3053.7273,99.2543
3054.6917,99.1922
3055.6558,99.1359
3056.6201,99.0808
3057.5842,99.023
3058.5486,98.9606
3059.5127,98.8932
3060.4771,98.8213
3061.4412,98.7459
3062.4055,98.6686
3063.3696,98.592
3064.3340,98.519
3065.2981,98.4511
3066.2625,98.3884
3067.2266,98.3286
3068.1909,98.2694
3069.1550,98.2095
3070.1194,98.1488
3071.0835,98.088
3072.0479,98.0263
3073.0120,97.9619
3073.9763,97.8926
3074.9404,97.8176
3075.9048,97.7389
3076.8689,97.6609
3077.8333,97.5884
3078.7974,97.524
3079.7617,97.4666
3080.7258,97.412
3081.6902,97.3548
3082.6543,97.291
3083.6187,97.2198
3084.5828,97.1431
3085.5471,97.0648
3086.5112,96.9884
3087.4756,96.9162
3088.4397,96.8485
3089.4041,96.7842
3090.3682,96.721
3091.3325,96.6567
3092.2966,96.5893
3093.2610,96.5167
3094.2251,96.4376
3095.1895,96.3513
3096.1536,96.2591
3097.1179,96.1643
3098.0820,96.0717
3099.0464,95.9852
3100.0105,95.9058
3100.9749,95.8305
3101.9390,95.7541
3102.9033,95.6716
3103.8674,95.5818
3104.8318,95.4873
3105.7959,95.3932
3106.7603,95.3035
3107.7244,95.2189
3108.6887,95.1368
3109.6528,95.053
3110.6172,94.9643
3111.5813,94.8702
3112.5457,94.7723
3113.5098,94.6731
3114.4741,94.5745
3115.4382,94.4779
3116.4026,94.3839
3117.3667,94.2935
3118.3311,94.2075
3119.2952,94.1257
3120.2595,94.0472
3121.2236,93.9696
3122.1880,93.8902
3123.1521,93.8068
3124.1165,93.7185
3125.0806,93.6254
3126.0449,93.5289
3127.0090,93.4307
3127.9734,93.3325
3128.9375,93.2357
3129.9019,93.1411
3130.8660,93.0487
3131.8303,92.958
3132.7944,92.8685
3133.7588,92.7798
3134.7229,92.6917
3135.6873,92.6037
3136.6514,92.5146
3137.6157,92.423
3138.5798,92.3271
3139.5442,92.2267
3140.5083,92.1228
3141.4727,92.0175
3142.4368,91.9125
3143.4011,91.8086
3144.3652,91.7053
3145.3296,91.602
3146.2937,91.4988
3147.2581,91.3974
3148.2222,91.2996
3149.1865,91.2063
3150.1506,91.1161
3151.1150,91.0262
3152.0791,90.9329
3153.0435,90.8341
3154.0076,90.73
3154.9719,90.6225
3155.9360,90.5148
3156.9004,90.4096
3157.8645,90.3079
3158.8289,90.2092
3159.7930,90.1119
3160.7573,90.0143
3161.7214,89.915
3162.6858,89.8137
3163.6499,89.7107
3164.6143,89.607
3165.5784,89.5034
3166.5427,89.4012
3167.5068,89.3011
3168.4712,89.2031
3169.4353,89.1191
3170.3997,89.0196
3171.3638,88.9145
3172.3281,88.8018
3173.2922,88.6824
3174.2566,88.5607
3175.2207,88.4431
3176.1851,88.3347
3177.1492,88.2372
3178.1135,88.148
3179.0776,88.0612
3180.0420,87.9712
3181.0061,87.8751
3181.9705,87.7736
3182.9346,87.6699
3183.8989,87.5671
3184.8630,87.4666
3185.8274,87.3674
3186.7915,87.2668
3187.7559,87.1629
3188.7200,87.0555
3189.6843,86.9468
3190.6484,86.8405
3191.6128,86.7395
3192.5769,86.6449
3193.5413,86.5553
3194.5054,86.4678
3195.4697,86.3794
3196.4338,86.288
3197.3982,86.193
3198.3623,86.0949
3199.3267,85.9955
3200.2908,85.8968
3201.2551,85.8012
3202.2192,85.7099
3203.1836,85.6225
3204.1477,85.5366
3205.1121,85.4488
3206.0762,85.3568
3207.0405,85.2605
3208.0046,85.1625
3208.9690,85.0663
3209.9331,84.9735
3210.8975,84.8834
3211.8616,84.7934
3212.8259,84.7016
3213.7900,84.6085
3214.7544,84.5169
3215.7185,84.4295
3216.6829,84.3469
3217.6470,84.2669
3218.6113,84.1857
3219.5754,84.1009
3220.5398,84.0127
3221.5039,83.9242
3222.4683,83.8385
3223.4324,83.7571
3224.3967,83.6791
3225.3608,83.6013
3226.3252,83.521
3227.2893,83.4369
3228.2537,83.35
3229.2178,83.2635
3230.1821,83.1808
3231.1462,83.1044
3232.1106,83.035
3233.0747,82.9713
3234.0391,82.9104
3235.0032,82.8484
3235.9675,82.7822
3236.9316,82.7096
3237.8960,82.6303
3238.8601,82.5457
3239.8245,82.4586
3240.7886,82.372
3241.7529,82.2889
3242.7170,82.2118
3243.6814,82.1419
3244.6455,82.0786
3245.6099,82.0196
3246.5740,81.9609
3247.5383,81.8989
3248.5024,81.8309
3249.4668,81.757
3250.4309,81.6793
3251.3953,81.6012
3252.3594,81.526
3253.3237,81.4552
3254.2878,81.3889
3255.2522,81.3256
3256.2163,81.2642
3257.1807,81.2042
3258.1448,81.1458
3259.1091,81.0891
3260.0732,81.033
3261.0376,80.9759
3262.0017,80.9161
3262.9661,80.8525
3263.9302,80.7855
3264.8945,80.7158
3265.8586,80.6439
3266.8230,80.5702
3267.7871,80.4951
3268.7515,80.4203
3269.7156,80.349
3270.6799,80.2851
3271.6440,80.2315
3272.6084,80.1881
3273.5725,80.1524
3274.5369,80.12
3275.5010,80.087
3276.4653,80.0513
3277.4294,80.0121
3278.3938,79.9695
3279.3579,79.9236
3280.3223,79.8747
3281.2864,79.823
3282.2507,79.7691
3283.2148,79.7134
3284.1792,79.6561
3285.1433,79.5971
3286.1077,79.537
3287.0718,79.4772
3288.0361,79.4199
3289.0002,79.3664
3289.9646,79.3166
3290.9287,79.2693
3291.8931,79.2232
3292.8572,79.1789
3293.8215,79.1381
3294.7856,79.1027
3295.7500,79.0721
3296.7141,79.0421
3297.6785,79.0073
3298.6426,78.9632
3299.6069,78.9097
3300.5710,78.8505
3301.5354,78.792
3302.4995,78.7393
3303.4639,78.6945
3304.4280,78.6571
3305.3923,78.6255
3306.3564,78.5991
3307.3208,78.5782
3308.2849,78.5628
3309.2493,78.5512
3310.2134,78.5399
3311.1777,78.5252
3312.1418,78.5049
3313.1062,78.4792
3314.0703,78.45
3315.0347,78.4186
3315.9988,78.3854
3316.9631,78.3501
3317.9272,78.313
3318.8916,78.276
3319.8557,78.2419
3320.8201,78.2128
3321.7842,78.1884
3322.7485,78.166
3323.7126,78.1422
3324.6770,78.1152
3325.6411,78.0861
3326.6055,78.0577
3327.5696,78.033
3328.5339,78.0134
3329.4980,77.9978
3330.4624,77.9839
3331.4265,77.9689
3332.3909,77.9513
3333.3550,77.9309
3334.3193,77.9089
3335.2834,77.8873
3336.2478,77.8686
3337.2119,77.8541
3338.1763,77.8444
3339.1404,77.8381
3340.1047,77.833
3341.0688,77.8266
3342.0332,77.8168
3342.9973,77.8024
3343.9617,77.7831
3344.9258,77.7599
3345.8901,77.7347
3346.8542,77.7104
3347.8186,77.6904
3348.7827,77.6784
3349.7471,77.6765
3350.7112,77.6849
3351.6755,77.7001
3352.6396,77.7159
3353.6040,77.7253
3354.5681,77.7234
3355.5325,77.7102
3356.4966,77.6912
3357.4609,77.6749
3358.4250,77.6683
3359.3894,77.673
3360.3535,77.685
3361.3179,77.6968
3362.2820,77.7024
3363.2463,77.7008
3364.2104,77.6961
3365.1748,77.6943
3366.1389,77.6995
3367.1033,77.712
3368.0674,77.7291
3369.0317,77.7475
3369.9958,77.7656
3370.9602,77.7835
3371.9243,77.8015
3372.8887,77.8188
3373.8528,77.8331
3374.8171,77.8427
3375.7813,77.8475
3376.7456,77.8506
3377.7097,77.8569
3378.6741,77.8708
3379.6382,77.8936
3380.6025,77.9229
3381.5667,77.9538
3382.5310,77.9808
3383.4951,78.0006
3384.4595,78.0131
3385.4236,78.0217
3386.3879,78.0314
3387.3521,78.0465
3388.3164,78.0692
3389.2805,78.0988
3390.2449,78.1318
3391.2090,78.1643
3392.1733,78.1938
3393.1375,78.2212
3394.1018,78.2506
3395.0659,78.2865
3396.0303,78.3302
3396.9944,78.379
3397.9587,78.4266
3398.9229,78.4678
3399.8872,78.5009
3400.8513,78.5291
3401.8157,78.5577
3402.7798,78.5901
3403.7441,78.6268
3404.7083,78.6657
3405.6726,78.7058
3406.6367,78.7479
3407.6011,78.7941
3408.5652,78.8449
3409.5295,78.8978
3410.4937,78.9477
3411.4580,78.9902
3412.4221,79.0243
3413.3865,79.0534
3414.3506,79.0831
3415.3149,79.1189
3416.2791,79.1635
3417.2434,79.2175
3418.2075,79.2793
3419.1719,79.3464
3420.1360,79.4152
3421.1003,79.4817
3422.0645,79.5427
3423.0288,79.5968
3423.9929,79.6456
3424.9573,79.6927
3425.9214,79.7428
3426.8857,79.7998
3427.8499,79.8652
3428.8142,79.938
3429.7783,80.0145
3430.7427,80.0904
3431.7068,80.1627
3432.6711,80.2307
3433.6353,80.2959
3434.5996,80.3607
3435.5637,80.4267
3436.5281,80.4932
3437.4922,80.558
3438.4565,80.6189
3439.4207,80.6751
3440.3850,80.7282
3441.3491,80.782
3442.3135,80.841
3443.2776,80.9089
3444.2419,80.9867
3445.2061,81.0724
3446.1704,81.1616
3447.1345,81.2493
3448.0989,81.3325
3449.0630,81.4111
3450.0273,81.4877
3450.9915,81.5645
3451.9558,81.6417
3452.9199,81.717
3453.8843,81.7875
3454.8484,81.8517
3455.8127,81.912
3456.7769,81.9742
3457.7412,82.0444
3458.7053,82.1269
3459.6697,82.2212
3460.6338,82.3227
3461.5981,82.4241
3462.5623,82.5193
3463.5266,82.6054
3464.4907,82.6845
3465.4551,82.7616
3466.4192,82.8421
3467.3835,82.9284
3468.3477,83.0185
3469.3120,83.1084
3470.2761,83.1951
3471.2405,83.2792
3472.2046,83.3644
3473.1689,83.455
3474.1331,83.5518
3475.0974,83.6511
3476.0615,83.7476
3477.0259,83.8381
3477.9900,83.924
3478.9543,84.01
3479.9185,84.1005
3480.8828,84.1955
3481.8469,84.2904
3482.8113,84.3798
3483.7754,84.4621
3484.7397,84.5414
3485.7039,84.6252
3486.6682,84.7194
3487.6323,84.8244
3488.5967,84.9346
3489.5608,85.0416
3490.5251,85.14
3491.4893,85.2305
3492.4536,85.3196
3493.4177,85.4154
3494.3821,85.5216
3495.3462,85.6349
3496.3105,85.7458
3497.2747,85.8464
3498.2390,85.9362
3499.2031,86.0248
3500.1675,86.1265
3501.1316,86.2515
3502.0959,86.397
3503.0601,86.5464
3504.0244,86.6805
3504.9885,86.7911
3505.9529,86.8859
3506.9170,86.9808
3507.8813,87.0885
3508.8455,87.2104
3509.8098,87.3369
3510.7739,87.4556
3511.7383,87.5615
3512.7024,87.6606
3513.6667,87.764
3514.6309,87.8791
3515.5952,88.0051
3516.5593,88.1345
3517.5237,88.2589
3518.4878,88.3753
3519.4521,88.4871
3520.4163,88.6015
3521.3806,88.724
3522.3447,88.8552
3523.3091,88.9917
3524.2732,89.1294
3525.2375,89.2666
3526.2017,89.404
3527.1660,89.5412
3528.1301,89.6745
3529.0945,89.7981
3530.0586,89.908
3531.0229,90.0064
3531.9871,90.1005
3532.9514,90.1992
3533.9155,90.3086
3534.8799,90.4291
3535.8440,90.556
3536.8083,90.6825
3537.7725,90.8032
3538.7368,90.917
3539.7009,91.0267
3540.6653,91.1382
3541.6294,91.2586
3542.5938,91.3949
3543.5579,91.5501
3544.5222,91.719
3545.4863,91.8865
3546.4507,92.0352
3547.4148,92.1582
3548.3792,92.2634
3549.3433,92.3683
3550.3076,92.4895
3551.2717,92.6336
3552.2361,92.794
3553.2002,92.9546
3554.1646,93.101
3555.1287,93.2289
3556.0930,93.3446
3557.0571,93.4573
3558.0215,93.5723
3558.9856,93.6877
3559.9500,93.796
3560.9141,93.8907
3561.8784,93.9714
3562.8425,94.0457
3563.8069,94.1283
3564.7710,94.2385
3565.7354,94.3921
3566.6995,94.5838
3567.6638,94.7783
3568.6279,94.9382
3569.5923,95.0539
3570.5564,95.1409
3571.5208,95.219
3572.4849,95.3003
3573.4492,95.3867
3574.4133,95.4735
3575.3777,95.5555
3576.3418,95.6321
3577.3062,95.7083
3578.2703,95.7902
3579.2346,95.8801
3580.1987,95.9741
3581.1631,96.066
3582.1272,96.152
3583.0916,96.2343
3584.0557,96.3194
3585.0200,96.4146
3585.9841,96.5232
3586.9485,96.637
3587.9126,96.7359
3588.8770,96.8043
3589.8411,96.8456
3590.8054,96.878
3591.7695,96.9195
3592.7339,96.9805
3593.6980,97.0602
3594.6624,97.1485
3595.6265,97.2313
3596.5908,97.3003
3597.5549,97.3575
3598.5193,97.4116
3599.4834,97.4711
3600.4478,97.5388
3601.4119,97.6108
3602.3762,97.6822
3603.3403,97.7511
3604.3047,97.8189
3605.2688,97.8871
3606.2332,97.9561
3607.1973,98.0252
3608.1616,98.094
3609.1257,98.1636
3610.0901,98.2355
3611.0542,98.3095
3612.0186,98.3816
3612.9829,98.4444
3613.9470,98.492
3614.9114,98.5251
3615.8755,98.5511
3616.8398,98.5812
3617.8040,98.6234
3618.7683,98.6759
3619.7324,98.7245
3620.6968,98.7526
3621.6609,98.7563
3622.6252,98.7477
3623.5894,98.7439
3624.5537,98.7585
3625.5178,98.798
3626.4822,98.8642
3627.4463,98.955
3628.4106,99.0564
3629.3748,99.1366
3630.3391,99.1722
3631.3032,99.1725
3632.2676,99.1653
3633.2317,99.1733
3634.1960,99.2053
3635.1602,99.2564
3636.1245,99.3149
3637.0886,99.3693
3638.0530,99.4133
3639.0171,99.446
3639.9814,99.4697
3640.9456,99.4874
3641.9099,99.502
3642.8740,99.5164
3643.8384,99.5332
3644.8025,99.5528
3645.7668,99.5746
3646.7310,99.6043
3647.6953,99.6638
3648.6594,99.7718
3649.6238,99.8919
3650.5879,99.9631
3651.5522,99.9748
3652.5164,99.9568
3653.4807,99.9391
3654.4448,99.937
3655.4092,99.9512
3656.3733,99.9722
3657.3376,99.9875
3658.3018,99.9923
3659.2661,99.9924
3660.2302,99.9976
3661.1946,100.012
3662.1587,100.034
3663.1230,100.061
3664.0872,100.092
3665.0515,100.119
3666.0156,100.149
3666.9800,100.183
3667.9441,100.221
3668.9084,100.254
3669.8726,100.273
3670.8369,100.273
3671.8010,100.261
3672.7654,100.249
3673.7295,100.252
3674.6938,100.277
3675.6580,100.323
3676.6223,100.368
3677.5864,100.394
3678.5508,100.4
3679.5149,100.398
3680.4792,100.396
3681.4434,100.396
3682.4077,100.397
3683.3718,100.398
3684.3362,100.402
3685.3003,100.407
3686.2646,100.41
3687.2288,100.404
3688.1931,100.395
3689.1572,100.396
3690.1216,100.414
3691.0857,100.439
3692.0500,100.46
3693.0142,100.473
3693.9785,100.479
3694.9426,100.479
3695.9070,100.475
3696.8711,100.469
3697.8354,100.464
3698.7996,100.466
3699.7639,100.475
3700.7280,100.492
3701.6924,100.516
3702.6565,100.539
3703.6208,100.553
3704.5850,100.558
3705.5493,100.556
3706.5134,100.551
3707.4778,100.546
3708.4419,100.546
3709.4063,100.563
3710.3704,100.613
3711.3347,100.693
3712.2988,100.771
3713.2632,100.819
3714.2273,100.834
3715.1917,100.827
3716.1558,100.812
3717.1201,100.797
3718.0842,100.785
3719.0486,100.774
3720.0127,100.765
3720.9771,100.757
3721.9412,100.751
3722.9055,100.752
3723.8696,100.762
3724.8340,100.777
3725.7981,100.791
3726.7625,100.802
3727.7266,100.808
3728.6909,100.815
3729.6550,100.826
3730.6194,100.841
3731.5835,100.853
3732.5479,100.858
3733.5120,100.863
3734.4763,100.885
3735.4404,100.931
3736.4048,100.984
3737.3689,101.02
3738.3333,101.036
3739.2974,101.045
3740.2617,101.056
3741.2258,101.072
3742.1902,101.085
3743.1543,101.083
3744.1187,101.058
3745.0828,101.012
3746.0471,100.955
3747.0112,100.9
3747.9756,100.861
3748.9397,100.853
3749.9041,100.883
3750.8682,100.938
3751.8325,100.977
3752.7966,100.967
3753.7610,100.915
3754.7251,100.844
3755.6895,100.777
3756.6536,100.728
3757.6179,100.704
3758.5820,100.705
3759.5464,100.719
3760.5105,100.733
3761.4749,100.741
3762.4390,100.745
3763.4033,100.752
3764.3674,100.761
3765.3318,100.771
3766.2959,100.773
3767.2603,100.762
3768.2244,100.74
3769.1887,100.716
3770.1528,100.7
3771.1172,100.695
3772.0813,100.699
3773.0457,100.706
3774.0098,100.713
3774.9741,100.721
3775.9382,100.729
3776.9026,100.736
3777.8667,100.737
3778.8311,100.731
3779.7952,100.717
3780.7595,100.695
3781.7236,100.671
3782.6880,100.652
3783.6521,100.641
3784.6165,100.64
3785.5806,100.647
3786.5449,100.66
3787.5090,100.676
3788.4734,100.693
3789.4375,100.707
3790.4019,100.716
3791.3660,100.713
3792.3303,100.695
3793.2944,100.664
3794.2588,100.628
3795.2229,100.6
3796.1873,100.59
3797.1514,100.603
3798.1157,100.628
3799.0798,100.652
3800.0442,100.657
3801.0083,100.64
3801.9727,100.61
3802.9368,100.58
3803.9011,100.563
3804.8652,100.566
3805.8296,100.584
3806.7937,100.61
3807.7581,100.63
3808.7222,100.635
3809.6865,100.628
3810.6506,100.62
3811.6150,100.618
3812.5791,100.622
3813.5435,100.627
3814.5076,100.621
3815.4719,100.601
3816.4360,100.572
3817.4004,100.542
3818.3645,100.523
3819.3289,100.523
3820.2930,100.539
3821.2573,100.56
3822.2214,100.571
3823.1858,100.563
3824.1499,100.546
3825.1143,100.531
3826.0784,100.526
3827.0427,100.534
3828.0068,100.549
3828.9712,100.566
3829.9353,100.579
3830.8997,100.587
3831.8638,100.589
3832.8281,100.586
3833.7922,100.575
3834.7566,100.552
3835.7207,100.515
3836.6851,100.47
3837.6492,100.433
3838.6135,100.421
3839.5776,100.438
3840.5420,100.474
3841.5061,100.516
3842.4705,100.551
3843.4346,100.571
3844.3989,100.569
3845.3630,100.545
3846.3274,100.507
3847.2915,100.464
3848.2559,100.43
3849.2200,100.415
3850.1843,100.425
3851.1484,100.464
3852.1128,100.53
3853.0769,100.599
3854.0413,100.626
3855.0054,100.592
3855.9697,100.527
3856.9338,100.469
3857.8982,100.438
3858.8623,100.438
3859.8267,100.457
3860.7908,100.481
3861.7551,100.496
3862.7192,100.502
3863.6836,100.501
3864.6477,100.501
3865.6121,100.5
3866.5762,100.492
3867.5405,100.473
3868.5046,100.445
3869.4690,100.416
3870.4331,100.397
3871.3975,100.394
3872.3616,100.4
3873.3259,100.408
3874.2900,100.411
3875.2544,100.411
3876.2185,100.41
3877.1829,100.413
3878.1470,100.419
3879.1113,100.428
3880.0754,100.438
3881.0398,100.447
3882.0039,100.454
3882.9683,100.457
3883.9324,100.458
3884.8967,100.455
3885.8608,100.449
3886.8252,100.439
3887.7893,100.423
3888.7537,100.403
3889.7178,100.383
3890.6821,100.368
3891.6462,100.363
3892.6106,100.37
3893.5747,100.382
3894.5391,100.391
3895.5032,100.394
3896.4675,100.389
3897.4316,100.376
3898.3960,100.355
3899.3601,100.332
3900.3245,100.314
3901.2886,100.306
3902.2529,100.309
3903.2170,100.322
3904.1814,100.34
3905.1455,100.355
3906.1099,100.362
3907.0740,100.362
3908.0383,100.357
3909.0024,100.349
3909.9668,100.342
3910.9309,100.337
3911.8953,100.336
3912.8594,100.339
3913.8237,100.347
3914.7878,100.359
3915.7522,100.371
3916.7163,100.377
3917.6807,100.372
3918.6448,100.353
3919.6091,100.323
3920.5732,100.291
3921.5376,100.263
3922.5017,100.245
3923.4661,100.237
3924.4302,100.239
3925.3945,100.246
3926.3586,100.252
3927.3230,100.252
3928.2871,100.246
3929.2515,100.233
3930.2156,100.219
3931.1799,100.211
3932.1440,100.215
3933.1084,100.234
3934.0725,100.261
3935.0369,100.288
3936.0010,100.307
3936.9653,100.31
3937.9294,100.296
3938.8938,100.269
3939.8579,100.237
3940.8223,100.211
3941.7864,100.201
3942.7507,100.208
3943.7148,100.225
3944.6792,100.239
3945.6433,100.241
3946.6077,100.227
3947.5718,100.203
3948.5361,100.177
3949.5002,100.159
3950.4646,100.154
3951.4287,100.158
3952.3931,100.165
3953.3572,100.17
3954.3215,100.169
3955.2856,100.162
3956.2500,100.151
3957.2141,100.141
3958.1785,100.136
3959.1426,100.141
3960.1069,100.158
3961.0710,100.184
3962.0354,100.213
3962.9995,100.237
3963.9639,100.248
3964.9280,100.243
3965.8923,100.225
3966.8564,100.199
3967.8208,100.169
3968.7849,100.143
3969.7493,100.123
3970.7134,100.113
3971.6777,100.114
3972.6418,100.122
3973.6062,100.134
3974.5703,100.144
3975.5347,100.147
3976.4988,100.144
3977.4631,100.136
3978.4272,100.129
3979.3916,100.124
3980.3557,100.12
3981.3201,100.114
3982.2842,100.102
3983.2485,100.085
3984.2126,100.067
3985.1770,100.053
3986.1411,100.05
3987.1055,100.057
3988.0696,100.071
3989.0339,100.083
3989.9980,100.086
3990.9624,100.079
3991.9265,100.065
3992.8909,100.053
3993.8550,100.048
3994.8193,100.051
3995.7834,100.055
3996.7478,100.055
3997.7119,100.047
3998.6763,100.034
3999.6404,100.022
4000.6047,100.003

##### Extended Information
[Comments]
Sample name
Comment
User
Division
Company,HANKYONG

[Detailed Information]
Creation date,4/24/2024 10:01 AM

Data array type,Linear data array
Horizontal axis,Wavenumber [cm-1]
Vertical axis,%T
Start,649.893 cm-1
End,4000.6 cm-1
Data interval,0.964233 cm-1
Data points,3476    

[Measurement Information]
Model Name,FT/IR-4700typeA
Serial Number,D056761788

Accessory,ATR PRO ONE
Accessory S/N,C174761809
Incident angle,45 deg

Measurement Date,4/24/2024 9:57 AM

Light Source,Standard
Detector,TGS
Accumulation,32
Resolution,4 cm-1
Zero Filling,On
Apodization,Cosine
Gain,Auto (4)
Aperture,Auto (7.1 mm)
Scanning Speed,Auto (2 mm/sec)
Filter,Auto (30000 Hz)

