TITLE,
DATA TYPE,INFRARED SPECTRUM
ORIGIN,JASCO
OWNER,
DATE,24/04/24
TIME,11:27:30
SPECTROMETER/DATA SYSTEM,
LOCALE,1033
RESOLUTION,
DELTAX,0.964233
XUNITS,1/CM
YUNITS,TRANSMITTANCE
FIRSTX,  649.8934
LASTX, 4000.6047
NPOINTS,    3476
FIRSTY,    99.78701
MAXY,   101.51945
MINY,    68.78304
XYDATA
649.8934,99.787
650.8576,99.714
651.8218,99.708
652.7861,99.7574
653.7503,99.8328
654.7145,99.8236
655.6788,99.7698
656.6430,99.6733
657.6072,99.5434
658.5715,99.4071
659.5357,99.3003
660.4999,99.2481
661.4642,99.2422
662.4284,99.2345
663.3926,99.1519
664.3569,98.9136
665.3211,98.4387
666.2853,97.6753
667.2496,96.7109
668.2138,95.9118
669.1780,95.6924
670.1423,95.9983
671.1065,96.4506
672.0707,96.7897
673.0350,96.9403
673.9992,96.9184
674.9634,96.7769
675.9277,96.5822
676.8919,96.3956
677.8561,96.2559
678.8204,96.1783
679.7846,96.1629
680.7488,96.1978
681.7131,96.2568
682.6773,96.3018
683.6415,96.2999
684.6058,96.244
685.5700,96.1583
686.5342,96.0838
687.4985,96.0507
688.4627,96.058
689.4269,96.0724
690.3912,96.0508
691.3554,95.9778
692.3196,95.8949
693.2839,95.8881
694.2481,96.0134
695.2123,96.2381
696.1766,96.4775
697.1408,96.6581
698.1050,96.7421
699.0693,96.7263
700.0335,96.6338
700.9977,96.5005
701.9620,96.3599
702.9262,96.235
703.8904,96.1367
704.8547,96.0662
705.8189,96.016
706.7831,95.9696
707.7474,95.9056
708.7116,95.8038
709.6758,95.6532
710.6401,95.4548
711.6043,95.218
712.5685,94.9518
713.5328,94.657
714.4970,94.3248
715.4612,94.102
716.4255,93.6655
717.3897,93.2149
718.3539,92.8051
719.3182,92.4996
720.2824,92.3388
721.2466,92.3124
722.2109,92.359
723.1751,92.3953
724.1393,92.3546
725.1036,92.2115
726.0678,91.9849
727.0320,91.7251
727.9963,91.4893
728.9605,91.3167
729.9247,91.2151
730.8890,91.1622
731.8532,91.1183
732.8174,91.0415
733.7817,90.8988
734.7459,90.6707
735.7101,90.3496
736.6744,89.937
737.6386,89.4408
738.6028,88.8752
739.5671,88.2619
740.5313,87.6303
741.4955,87.0143
742.4598,86.4478
743.4240,85.959
744.3882,85.566
745.3525,85.2757
746.3167,85.0843
747.2809,84.9798
748.2452,84.9445
749.2094,84.9596
750.1736,85.0087
751.1379,85.0823
752.1021,85.1774
753.0663,85.2945
754.0306,85.4315
754.9948,85.5798
755.9590,85.7249
756.9233,85.8514
757.8875,85.9486
758.8517,86.0136
759.8160,86.0489
760.7802,86.0591
761.7444,86.0468
762.7087,86.0134
763.6729,85.9614
764.6371,85.8982
765.6014,85.8371
766.5656,85.7966
767.5298,85.7965
768.4941,85.8531
769.4583,85.9734
770.4225,86.1514
771.3868,86.3672
772.3510,86.5905
773.3152,86.7889
774.2795,86.9364
775.2437,87.0194
776.2079,87.037
777.1722,86.9968
778.1364,86.9092
779.1006,86.7838
780.0649,86.6297
781.0291,86.4573
781.9933,86.2783
782.9576,86.1036
783.9218,85.9396
784.8860,85.7859
785.8503,85.6374
786.8145,85.4889
787.7787,85.3387
788.7430,85.1889
789.7072,85.0422
790.6714,84.8971
791.6357,84.7468
792.5999,84.5822
793.5641,84.3974
794.5284,84.1936
795.4926,83.9787
796.4568,83.7628
797.4211,83.5522
798.3853,83.3467
799.3495,83.1419
800.3138,82.9335
801.2780,82.7214
802.2422,82.5096
803.2065,82.3038
804.1707,82.1081
805.1349,81.9235
806.0992,81.7506
807.0634,81.593
808.0276,81.4592
808.9919,81.3617
809.9561,81.3121
810.9203,81.3162
811.8846,81.3708
812.8488,81.4653
813.8130,81.5852
814.7773,81.7178
815.7415,81.8544
816.7057,81.9904
817.6700,82.1232
818.6342,82.2505
819.5984,82.3698
820.5627,82.4794
821.5269,82.5788
822.4911,82.6676
823.4554,82.7436
824.4196,82.8024
825.3839,82.8391
826.3481,82.8519
827.3123,82.8442
828.2766,82.8242
829.2408,82.8007
830.2050,82.7782
831.1693,82.7548
832.1335,82.7235
833.0977,82.6764
834.0620,82.609
835.0262,82.521
835.9904,82.4149
836.9547,82.2928
837.9189,82.1551
838.8831,82.0012
839.8474,81.8318
840.8116,81.6512
841.7758,81.4664
842.7401,81.2851
843.7043,81.1117
844.6685,80.9452
845.6328,80.7803
846.5970,80.6101
847.5612,80.4306
848.5255,80.2429
849.4897,80.053
850.4539,79.8701
851.4182,79.7037
852.3824,79.5612
853.3466,79.4481
854.3109,79.3673
855.2751,79.3187
856.2393,79.2988
857.2036,79.2997
858.1678,79.3106
859.1320,79.3204
860.0963,79.322
861.0605,79.3152
862.0247,79.3065
862.9890,79.3052
863.9532,79.3187
864.9174,79.3475
865.8817,79.385
866.8459,79.4217
867.8101,79.4512
868.7744,79.4741
869.7386,79.4964
870.7028,79.5239
871.6671,79.5554
872.6313,79.5796
873.5955,79.5807
874.5598,79.5479
875.5240,79.4848
876.4882,79.4115
877.4525,79.3572
878.4167,79.348
879.3809,79.3968
880.3452,79.5006
881.3094,79.6465
882.2736,79.8207
883.2379,80.0148
884.2021,80.2256
885.1663,80.4498
886.1306,80.6811
887.0948,80.9107
888.0590,81.1331
889.0233,81.352
889.9875,81.5807
890.9517,81.8364
891.9160,82.1314
892.8802,82.4666
893.8444,82.8315
894.8087,83.2101
895.7729,83.589
896.7371,83.9622
897.7014,84.3311
898.6656,84.7002
899.6298,85.0724
900.5941,85.4456
901.5583,85.8128
902.5225,86.1655
903.4868,86.496
904.4510,86.8004
905.4152,87.078
906.3795,87.3299
907.3437,87.5567
908.3079,87.7566
909.2722,87.9268
910.2364,88.0647
911.2006,88.1709
912.1649,88.2499
913.1291,88.3092
914.0933,88.3565
915.0576,88.3981
916.0218,88.4383
916.9860,88.4795
917.9503,88.5242
918.9145,88.5753
919.8787,88.6361
920.8430,88.7096
921.8072,88.7972
922.7714,88.8986
923.7357,89.0103
924.6999,89.1267
925.6641,89.2406
926.6284,89.3471
927.5926,89.4465
928.5568,89.5478
929.5211,89.6701
930.4853,89.8404
931.4495,90.0901
932.4138,90.4491
933.3780,90.9395
934.3422,91.5697
935.3065,92.3301
936.2707,93.1923
937.2349,94.1125
938.1992,95.0402
939.1634,95.9289
940.1276,96.7457
941.0919,97.4761
942.0561,98.1218
943.0203,98.6941
943.9846,99.2045
944.9488,99.6593
945.9130,100.059
946.8773,100.4
947.8415,100.681
948.8057,100.906
949.7700,101.083
950.7342,101.221
951.6984,101.328
952.6627,101.411
953.6269,101.47
954.5911,101.507
955.5554,101.519
956.5196,101.508
957.4838,101.471
958.4481,101.409
959.4123,101.322
960.3765,101.212
961.3408,101.081
962.3050,100.933
963.2692,100.775
964.2335,100.616
965.1977,100.464
966.1619,100.33
967.1262,100.217
968.0904,100.128
969.0546,100.057
970.0189,99.9974
970.9831,99.9433
971.9473,99.8896
972.9116,99.8346
973.8758,99.7802
974.8400,99.7301
975.8043,99.688
976.7685,99.6548
977.7327,99.6264
978.6970,99.5936
979.6612,99.5485
980.6254,99.518
981.5897,99.4542
982.5539,99.3586
983.5181,99.2386
984.4824,99.1032
985.4466,98.96
986.4108,98.8127
987.3751,98.6626
988.3393,98.5109
989.3035,98.3614
990.2678,98.2205
991.2320,98.0956
992.1962,97.992
993.1605,97.9104
994.1247,97.847
995.0889,97.7952
996.0532,97.749
997.0174,97.7049
997.9816,97.6622
998.9459,97.6207
999.9101,97.5784
1000.8743,97.5297
1001.8386,97.465
1002.8028,97.3722
1003.7670,97.2381
1004.7313,97.0492
1005.6955,96.7942
1006.6597,96.4659
1007.6240,96.0627
1008.5882,95.5892
1009.5524,95.0535
1010.5167,94.464
1011.4809,93.8271
1012.4451,93.147
1013.4094,92.4269
1014.3736,91.6706
1015.3378,90.8829
1016.3021,90.0692
1017.2663,89.2356
1018.2305,88.388
1019.1948,87.5286
1020.1590,86.6512
1021.1232,85.7372
1022.0875,84.7598
1023.0517,83.6967
1024.0160,82.5485
1024.9802,81.3489
1025.9445,80.1587
1026.9087,79.043
1027.8729,78.0422
1028.8372,77.1565
1029.8014,76.3504
1030.7656,75.5773
1031.7299,74.8056
1032.6941,74.0339
1033.6583,73.2877
1034.6226,72.6039
1035.5868,72.0146
1036.5510,71.5371
1037.5153,71.1722
1038.4795,70.9069
1039.4437,70.7196
1040.4080,70.5858
1041.3722,70.4848
1042.3364,70.4058
1043.3007,70.351
1044.2649,70.3327
1045.2291,70.3659
1046.1934,70.4622
1047.1576,70.6272
1048.1218,70.8626
1049.0861,71.1684
1050.0503,71.5418
1051.0145,71.9732
1051.9788,72.4423
1052.9430,72.9225
1053.9072,73.3914
1054.8715,73.8438
1055.8357,74.2951
1056.7999,74.7712
1057.7642,75.2846
1058.7284,75.8123
1059.6926,76.2895
1060.6569,76.6293
1061.6211,76.7607
1062.5853,76.6678
1063.5496,76.4048
1064.5138,76.077
1065.4780,75.7935
1066.4423,75.6174
1067.4065,75.5385
1068.3707,75.4843
1069.3350,75.3614
1070.2992,75.1019
1071.2634,74.6901
1072.2277,74.1588
1073.1919,73.5638
1074.1561,72.9541
1075.1204,72.3572
1076.0846,71.781
1077.0488,71.2273
1078.0131,70.7031
1078.9773,70.2228
1079.9415,69.8032
1080.9058,69.4557
1081.8700,69.1835
1082.8342,68.983
1083.7985,68.8496
1084.7627,68.783
1085.7269,68.7904
1086.6912,68.8859
1087.6554,69.0864
1088.6196,69.4028
1089.5839,69.8312
1090.5481,70.3483
1091.5123,70.9154
1092.4766,71.4906
1093.4408,72.0454
1094.4050,72.5742
1095.3693,73.0933
1096.3335,73.6294
1097.2977,74.2033
1098.2620,74.8208
1099.2262,75.4716
1100.1904,76.1372
1101.1547,76.8002
1102.1189,77.45
1103.0831,78.0827
1104.0474,78.6986
1105.0116,79.2997
1105.9758,79.889
1106.9401,80.4707
1107.9043,81.051
1108.8685,81.6379
1109.8328,82.2411
1110.7970,82.8719
1111.7612,83.5419
1112.7255,84.2599
1113.6897,85.0288
1114.6539,85.8436
1115.6182,86.6918
1116.5824,87.5582
1117.5466,88.4296
1118.5109,89.2985
1119.4751,90.1626
1120.4393,91.0218
1121.4036,91.8743
1122.3678,92.7153
1123.3320,93.5376
1124.2963,94.3332
1125.2605,95.0952
1126.2247,95.8184
1127.1890,96.4978
1128.1532,97.1283
1129.1174,97.7034
1130.0817,98.2152
1131.0459,98.6549
1132.0101,99.0146
1132.9744,99.2808
1133.9386,99.4355
1134.9028,99.5029
1135.8671,99.4853
1136.8313,99.3849
1137.7955,99.2032
1138.7598,98.9411
1139.7240,98.6008
1140.6882,98.1878
1141.6525,97.7125
1142.6167,97.1913
1143.5809,96.6464
1144.5452,96.1036
1145.5094,95.589
1146.4736,95.1241
1147.4379,94.7222
1148.4021,94.3863
1149.3663,94.1109
1150.3306,93.8854
1151.2948,93.698
1152.2590,93.5376
1153.2233,93.3933
1154.1875,93.2539
1155.1517,93.1071
1156.1160,92.9424
1157.0802,92.7532
1158.0444,92.538
1159.0087,92.2985
1159.9729,92.0365
1160.9371,91.7504
1161.9014,91.4352
1162.8656,91.0849
1163.8298,90.6971
1164.7941,90.275
1165.7583,89.8278
1166.7225,89.3673
1167.6868,88.9045
1168.6510,88.4467
1169.6152,87.9961
1170.5795,87.5516
1171.5437,87.1096
1172.5079,86.6663
1173.4722,86.2193
1174.4364,85.768
1175.4006,85.3139
1176.3649,84.8599
1177.3291,84.4083
1178.2933,83.9595
1179.2576,83.5111
1180.2218,83.0591
1181.1860,82.6002
1182.1503,82.134
1183.1145,81.6649
1184.0787,81.2008
1185.0430,80.7505
1186.0072,80.3205
1186.9714,79.913
1187.9357,79.526
1188.8999,79.1552
1189.8641,78.7964
1190.8284,78.4476
1191.7926,78.1092
1192.7568,77.784
1193.7211,77.476
1194.6853,77.1893
1195.6495,76.9274
1196.6138,76.6915
1197.5780,76.4806
1198.5422,76.2912
1199.5065,76.1641
1200.4707,75.9993
1201.4349,75.8442
1202.3992,75.6978
1203.3634,75.5599
1204.3276,75.4308
1205.2919,75.3115
1206.2561,75.2031
1207.2203,75.1073
1208.1846,75.0255
1209.1488,74.9585
1210.1130,74.906
1211.0773,74.8664
1212.0415,74.8371
1213.0057,74.8151
1213.9700,74.7972
1214.9342,74.7812
1215.8984,74.7662
1216.8627,74.7527
1217.8269,74.7422
1218.7911,74.7346
1219.7554,74.7286
1220.7196,74.7213
1221.6838,74.7108
1222.6481,74.6974
1223.6123,74.683
1224.5765,74.6697
1225.5408,74.6564
1226.5050,74.6372
1227.4692,74.6027
1228.4335,74.5425
1229.3977,74.4506
1230.3619,74.3294
1231.3262,74.1935
1232.2904,74.0694
1233.2546,73.9907
1234.2189,73.9893
1235.1831,74.0853
1236.1473,74.2814
1237.1116,74.5655
1238.0758,74.9195
1239.0400,75.329
1240.0043,75.7863
1240.9685,76.2838
1241.9327,76.8023
1242.8970,77.3046
1243.8612,77.7417
1244.8254,78.0701
1245.7897,78.2691
1246.7539,78.349
1247.7181,78.3432
1248.6824,78.2917
1249.6466,78.2251
1250.6108,78.1579
1251.5751,78.0905
1252.5393,78.0168
1253.5035,77.9315
1254.4678,77.833
1255.4320,77.7246
1256.3962,77.6135
1257.3605,77.5099
1258.3247,77.4257
1259.2889,77.3713
1260.2532,77.353
1261.2174,77.3704
1262.1816,77.4169
1263.1459,77.4812
1264.1101,77.5501
1265.0743,77.6092
1266.0386,77.6448
1267.0028,77.6457
1267.9670,77.6064
1268.9313,77.5284
1269.8955,77.4204
1270.8597,77.2956
1271.8240,77.1686
1272.7882,77.052
1273.7524,76.9557
1274.7167,76.8864
1275.6809,76.8483
1276.6451,76.843
1277.6094,76.8689
1278.5736,76.9219
1279.5378,76.9961
1280.5021,77.0859
1281.4663,77.1875
1282.4305,77.3001
1283.3948,77.4254
1284.3590,77.5681
1285.3232,77.7343
1286.2875,77.9308
1287.2517,78.1631
1288.2159,78.4323
1289.1802,78.734
1290.1444,79.0579
1291.1086,79.3907
1292.0729,79.7199
1293.0371,80.0364
1294.0013,80.335
1294.9656,80.6134
1295.9298,80.8712
1296.8940,81.1079
1297.8583,81.3234
1298.8225,81.5182
1299.7867,81.694
1300.7510,81.854
1301.7152,82.0022
1302.6794,82.1437
1303.6437,82.284
1304.6079,82.427
1305.5721,82.5744
1306.5364,82.7242
1307.5006,82.8724
1308.4648,83.0155
1309.4291,83.1533
1310.3933,83.2893
1311.3575,83.4288
1312.3218,83.5752
1313.2860,83.727
1314.2502,83.8795
1315.2145,84.029
1316.1787,84.1761
1317.1429,84.3263
1318.1072,84.4855
1319.0714,84.6543
1320.0356,84.8258
1320.9999,84.9893
1321.9641,85.1362
1322.9283,85.2643
1323.8926,85.3769
1324.8568,85.4789
1325.8210,85.5739
1326.7853,85.6627
1327.7495,85.7455
1328.7137,85.8236
1329.6780,85.9
1330.6422,85.9774
1331.6064,86.054
1332.5707,86.1222
1333.5349,86.169
1334.4991,86.1827
1335.4634,86.1587
1336.4276,86.1066
1337.3918,86.0541
1338.3561,86.0402
1339.3203,86.0913
1340.2845,86.1965
1341.2488,86.312
1342.2130,86.3939
1343.1772,86.4199
1344.1415,86.3898
1345.1057,86.3147
1346.0699,86.2102
1347.0342,86.0913
1347.9984,85.9695
1348.9626,85.8499
1349.9269,85.7318
1350.8911,85.612
1351.8553,85.4896
1352.8196,85.3684
1353.7838,85.2555
1354.7480,85.157
1355.7123,85.0731
1356.6765,84.9967
1357.6407,84.9184
1358.6050,84.8332
1359.5692,84.7459
1360.5334,84.6746
1361.4977,84.6467
1362.4619,84.6774
1363.4261,84.7479
1364.3904,84.8157
1365.3546,84.8486
1366.3188,84.8386
1367.2831,84.7928
1368.2473,84.7209
1369.2115,84.6282
1370.1758,84.5152
1371.1400,84.3804
1372.1042,84.2276
1373.0685,84.0719
1374.0327,83.938
1374.9969,83.845
1375.9612,83.7922
1376.9254,83.7681
1377.8896,83.7711
1378.8539,83.8149
1379.8181,83.9177
1380.7823,84.0865
1381.7466,84.311
1382.7108,84.5757
1383.6750,84.8772
1384.6393,85.231
1385.6035,85.6566
1386.5677,86.1422
1387.5320,86.6132
1388.4962,86.9614
1389.4604,87.1231
1390.4247,87.1152
1391.3889,87.0034
1392.3531,86.8649
1393.3174,86.7727
1394.2816,86.7847
1395.2458,86.9177
1396.2101,87.1253
1397.1743,87.3198
1398.1385,87.4269
1399.1028,87.4196
1400.0670,87.3135
1401.0313,87.143
1401.9955,86.9428
1402.9597,86.7413
1403.9240,86.5618
1404.8882,86.4219
1405.8524,86.3272
1406.8167,86.269
1407.7809,86.2354
1408.7451,86.2231
1409.7094,86.2365
1410.6736,86.2759
1411.6378,86.3281
1412.6021,86.3716
1413.5663,86.3926
1414.5305,86.3932
1415.4948,86.3848
1416.4590,86.3782
1417.4232,86.3823
1418.3875,86.3969
1419.3517,86.3909
1420.3159,86.3138
1421.2802,86.1479
1422.2444,85.9207
1423.2086,85.6712
1424.1729,85.4245
1425.1371,85.1863
1426.1013,84.9473
1427.0656,84.6914
1428.0298,84.4039
1428.9940,84.0833
1429.9583,83.749
1430.9225,83.4345
1431.8867,83.1681
1432.8510,82.9603
1433.8152,82.8003
1434.7794,82.6638
1435.7437,82.5296
1436.7079,82.386
1437.6721,82.2153
1438.6364,81.9986
1439.6006,81.7446
1440.5648,81.4858
1441.5291,81.251
1442.4933,81.0497
1443.4575,80.8749
1444.4218,80.7125
1445.3860,80.5507
1446.3502,80.3844
1447.3145,80.2124
1448.2787,80.0307
1449.2429,79.8312
1450.2072,79.6117
1451.1714,79.3884
1452.1356,79.1893
1453.0999,79.0334
1454.0641,78.9123
1455.0283,78.8042
1455.9926,78.746
1456.9568,78.8617
1457.9210,79.1304
1458.8853,79.3175
1459.8495,79.3291
1460.8137,79.2644
1461.7780,79.2484
1462.7422,79.3678
1463.7064,79.6736
1464.6707,80.1627
1465.6349,80.7431
1466.5991,81.2883
1467.5634,81.7488
1468.5276,82.1686
1469.4918,82.6213
1470.4561,83.1707
1471.4203,83.8731
1472.3845,84.7606
1473.3488,85.7514
1474.3130,86.6328
1475.2772,87.2515
1476.2415,87.6205
1477.2057,87.8318
1478.1699,87.9707
1479.1342,88.0997
1480.0984,88.2646
1481.0626,88.4934
1482.0269,88.786
1482.9911,89.1136
1483.9553,89.4342
1484.9196,89.7115
1485.8838,89.9244
1486.8480,90.0758
1487.8123,90.2127
1488.7765,90.4171
1489.7407,90.7048
1490.7050,90.9702
1491.6692,91.1158
1492.6334,91.1405
1493.5977,91.086
1494.5619,90.9714
1495.5261,90.7841
1496.4904,90.515
1497.4546,90.1885
1498.4188,89.8369
1499.3831,89.4713
1500.3473,89.1139
1501.3115,88.8156
1502.2758,88.6227
1503.2400,88.5347
1504.2042,88.477
1505.1685,88.3173
1506.1327,88.018
1507.0969,87.8199
1508.0612,87.8762
1509.0254,87.9471
1509.9896,87.8825
1510.9539,87.7364
1511.9181,87.5885
1512.8823,87.4858
1513.8466,87.4613
1514.8108,87.5533
1515.7750,87.7948
1516.7393,88.1861
1517.7035,88.6955
1518.6677,89.3006
1519.6320,90.0161
1520.5962,90.8561
1521.5604,91.7613
1522.5247,92.6077
1523.4889,93.3244
1524.4531,93.9545
1525.4174,94.5827
1526.3816,95.2334
1527.3458,95.8505
1528.3101,96.3652
1529.2743,96.7637
1530.2385,97.0909
1531.2028,97.4165
1532.1670,97.7961
1533.1312,98.2295
1534.0955,98.6478
1535.0597,98.9834
1536.0239,99.2358
1536.9882,99.4324
1537.9524,99.5451
1538.9166,99.4873
1539.8809,99.2903
1540.8451,99.2661
1541.8093,99.5871
1542.7736,100.004
1543.7378,100.319
1544.7020,100.518
1545.6663,100.627
1546.6305,100.656
1547.5947,100.624
1548.5590,100.556
1549.5232,100.476
1550.4874,100.39
1551.4517,100.288
1552.4159,100.168
1553.3801,100.049
1554.3444,99.9757
1555.3086,99.9542
1556.2728,99.9497
1557.2371,99.9286
1558.2013,99.9887
1559.1655,100.163
1560.1298,100.129
1561.0940,99.7399
1562.0582,99.1819
1563.0225,98.6535
1563.9867,98.2431
1564.9509,97.9523
1565.9152,97.7336
1566.8794,97.5209
1567.8436,97.2614
1568.8079,96.9443
1569.7721,96.5968
1570.7363,96.2526
1571.7006,95.9342
1572.6648,95.6432
1573.6290,95.3436
1574.5933,94.969
1575.5575,94.4889
1576.5217,93.9677
1577.4860,93.4859
1578.4502,93.0441
1579.4144,92.6115
1580.3787,92.1747
1581.3429,91.7262
1582.3071,91.2558
1583.2714,90.7595
1584.2356,90.2432
1585.1998,89.7151
1586.1641,89.178
1587.1283,88.6319
1588.0925,88.0801
1589.0568,87.5299
1590.0210,86.989
1590.9852,86.4617
1591.9495,85.9514
1592.9137,85.4674
1593.8779,85.0271
1594.8422,84.6487
1595.8064,84.3386
1596.7706,84.087
1597.7349,83.8745
1598.6991,83.6846
1599.6633,83.5105
1600.6276,83.3557
1601.5918,83.2287
1602.5560,83.1351
1603.5203,83.0725
1604.4845,83.0337
1605.4487,83.0153
1606.4130,83.0253
1607.3772,83.0803
1608.3414,83.1917
1609.3057,83.3478
1610.2699,83.5145
1611.2341,83.6629
1612.1984,83.7937
1613.1626,83.9316
1614.1268,84.1113
1615.0911,84.3727
1616.0553,84.7351
1617.0195,85.1319
1617.9838,85.4335
1618.9480,85.5934
1619.9122,85.6837
1620.8765,85.8073
1621.8407,86.0296
1622.8049,86.3583
1623.7692,86.7458
1624.7334,87.1251
1625.6976,87.4675
1626.6619,87.7956
1627.6261,88.1375
1628.5903,88.4858
1629.5546,88.8082
1630.5188,89.0898
1631.4830,89.3483
1632.4473,89.6076
1633.4115,89.8707
1634.3757,90.1403
1635.3400,90.4601
1636.3042,90.843
1637.2684,91.1738
1638.2327,91.3589
1639.1969,91.4362
1640.1611,91.4883
1641.1254,91.5677
1642.0896,91.6856
1643.0538,91.816
1644.0181,91.9015
1644.9823,91.8869
1645.9465,91.7939
1646.9108,91.7276
1647.8750,91.7558
1648.8392,91.8789
1649.8035,92.0921
1650.7677,92.3601
1651.7319,92.5844
1652.6962,92.6874
1653.6604,92.6796
1654.6246,92.4955
1655.5889,92.098
1656.5531,91.6291
1657.5173,91.2395
1658.4816,90.9818
1659.4458,90.8225
1660.4100,90.6897
1661.3743,90.5282
1662.3385,90.3313
1663.3027,90.1192
1664.2670,89.9083
1665.2312,89.7071
1666.1954,89.5083
1667.1597,89.2819
1668.1239,88.9986
1669.0881,88.6808
1670.0524,88.4041
1671.0166,88.2169
1671.9808,88.1043
1672.9451,88.0311
1673.9093,87.9616
1674.8735,87.8516
1675.8378,87.6553
1676.8020,87.3566
1677.7662,86.9953
1678.7305,86.651
1679.6947,86.3928
1680.6589,86.2371
1681.6232,86.1381
1682.5874,86.0291
1683.5516,85.8942
1684.5159,85.7379
1685.4801,85.5031
1686.4443,85.1607
1687.4086,84.7681
1688.3728,84.4006
1689.3370,84.1016
1690.3013,83.881
1691.2655,83.7234
1692.2297,83.5929
1693.1940,83.4362
1694.1582,83.1983
1695.1224,82.8582
1696.0867,82.4731
1697.0509,82.1783
1698.0151,82.0951
1698.9794,82.199
1699.9436,82.3108
1700.9078,82.2612
1701.8721,82.0325
1702.8363,81.7347
1703.8005,81.5047
1704.7648,81.4336
1705.7290,81.5371
1706.6932,81.7563
1707.6575,81.9994
1708.6217,82.2053
1709.5859,82.3727
1710.5502,82.5342
1711.5144,82.7176
1712.4786,82.929
1713.4429,83.1635
1714.4071,83.4422
1715.3713,83.86
1716.3356,84.5524
1717.2998,85.4772
1718.2640,86.3247
1719.2283,86.8627
1720.1925,87.1423
1721.1567,87.3384
1722.1210,87.5852
1723.0852,87.9296
1724.0494,88.3448
1725.0137,88.7684
1725.9779,89.1453
1726.9421,89.4555
1727.9064,89.7162
1728.8706,89.9635
1729.8348,90.2343
1730.7991,90.5591
1731.7633,90.9667
1732.7275,91.4741
1733.6918,92.0217
1734.6560,92.4502
1735.6202,92.6554
1736.5845,92.6986
1737.5487,92.7158
1738.5129,92.803
1739.4772,92.9798
1740.4414,93.2049
1741.4056,93.415
1742.3699,93.5686
1743.3341,93.6685
1744.2983,93.7464
1745.2626,93.8343
1746.2268,93.9529
1747.1910,94.1233
1748.1553,94.3802
1749.1195,94.75
1750.0837,95.1898
1751.0480,95.5824
1752.0122,95.8361
1752.9764,95.955
1753.9407,96.0046
1754.9049,96.0497
1755.8691,96.1238
1756.8334,96.2294
1757.7976,96.3544
1758.7618,96.4905
1759.7261,96.6404
1760.6903,96.8102
1761.6545,96.9941
1762.6188,97.1697
1763.5830,97.3146
1764.5472,97.4262
1765.5115,97.5203
1766.4757,97.6127
1767.4399,97.7043
1768.4042,97.7826
1769.3684,97.8387
1770.3326,97.8906
1771.2969,97.986
1772.2611,98.1554
1773.2253,98.3564
1774.1896,98.5107
1775.1538,98.5895
1776.1180,98.6253
1777.0823,98.6649
1778.0465,98.733
1779.0107,98.8297
1779.9750,98.9438
1780.9392,99.0661
1781.9034,99.1926
1782.8677,99.3185
1783.8319,99.4316
1784.7961,99.5139
1785.7604,99.5542
1786.7246,99.5608
1787.6888,99.5574
1788.6531,99.5635
1789.6173,99.5791
1790.5815,99.592
1791.5458,99.6006
1792.5100,99.6124
1793.4742,99.6155
1794.4385,99.5917
1795.4027,99.5517
1796.3669,99.5263
1797.3312,99.5347
1798.2954,99.5742
1799.2596,99.631
1800.2239,99.693
1801.1881,99.7517
1802.1523,99.7978
1803.1166,99.8241
1804.0808,99.83
1805.0450,99.8192
1806.0093,99.7957
1806.9735,99.7618
1807.9377,99.7217
1808.9020,99.6856
1809.8662,99.6687
1810.8304,99.6805
1811.7947,99.7305
1812.7589,99.8
1813.7231,99.8638
1814.6874,99.9174
1815.6516,99.9599
1816.6158,99.9906
1817.5801,100.009
1818.5443,100.016
1819.5085,100.019
1820.4728,100.026
1821.4370,100.042
1822.4012,100.066
1823.3655,100.09
1824.3297,100.102
1825.2939,100.093
1826.2582,100.065
1827.2224,100.029
1828.1866,100.01
1829.1509,100.032
1830.1151,100.093
1831.0793,100.163
1832.0436,100.205
1833.0078,100.208
1833.9720,100.191
1834.9363,100.174
1835.9005,100.167
1836.8647,100.167
1837.8290,100.172
1838.7932,100.184
1839.7574,100.213
1840.7217,100.262
1841.6859,100.318
1842.6501,100.36
1843.6144,100.377
1844.5786,100.372
1845.5428,100.352
1846.5071,100.321
1847.4713,100.294
1848.4355,100.289
1849.3998,100.311
1850.3640,100.35
1851.3282,100.387
1852.2925,100.411
1853.2567,100.418
1854.2209,100.415
1855.1852,100.408
1856.1494,100.401
1857.1136,100.395
1858.0779,100.393
1859.0421,100.397
1860.0063,100.405
1860.9706,100.41
1861.9348,100.401
1862.8990,100.372
1863.8633,100.323
1864.8275,100.26
1865.7917,100.193
1866.7560,100.144
1867.7202,100.144
1868.6844,100.214
1869.6487,100.325
1870.6129,100.421
1871.5771,100.472
1872.5414,100.485
1873.5056,100.485
1874.4698,100.484
1875.4341,100.487
1876.3983,100.489
1877.3625,100.49
1878.3268,100.49
1879.2910,100.489
1880.2552,100.487
1881.2195,100.483
1882.1837,100.474
1883.1479,100.459
1884.1122,100.443
1885.0764,100.428
1886.0406,100.42
1887.0049,100.42
1887.9691,100.427
1888.9333,100.438
1889.8976,100.446
1890.8618,100.444
1891.8260,100.429
1892.7903,100.407
1893.7545,100.389
1894.7188,100.386
1895.6830,100.401
1896.6472,100.428
1897.6115,100.455
1898.5757,100.471
1899.5399,100.474
1900.5042,100.465
1901.4684,100.452
1902.4326,100.438
1903.3969,100.422
1904.3611,100.402
1905.3253,100.372
1906.2896,100.335
1907.2538,100.299
1908.2180,100.276
1909.1823,100.275
1910.1465,100.295
1911.1107,100.324
1912.0750,100.351
1913.0392,100.37
1914.0034,100.385
1914.9677,100.399
1915.9319,100.413
1916.8961,100.42
1917.8604,100.413
1918.8246,100.383
1919.7888,100.334
1920.7531,100.281
1921.7173,100.245
1922.6815,100.241
1923.6458,100.271
1924.6100,100.319
1925.5742,100.365
1926.5385,100.397
1927.5027,100.412
1928.4669,100.416
1929.4312,100.415
1930.3954,100.414
1931.3596,100.415
1932.3239,100.419
1933.2881,100.427
1934.2523,100.437
1935.2166,100.448
1936.1808,100.457
1937.1450,100.46
1938.1093,100.454
1939.0735,100.439
1940.0377,100.415
1941.0020,100.388
1941.9662,100.367
1942.9304,100.361
1943.8947,100.372
1944.8589,100.395
1945.8231,100.425
1946.7874,100.458
1947.7516,100.49
1948.7158,100.518
1949.6801,100.536
1950.6443,100.543
1951.6085,100.542
1952.5728,100.538
1953.5370,100.537
1954.5012,100.543
1955.4655,100.556
1956.4297,100.571
1957.3939,100.585
1958.3582,100.596
1959.3224,100.604
1960.2866,100.608
1961.2509,100.608
1962.2151,100.602
1963.1793,100.589
1964.1436,100.571
1965.1078,100.555
1966.0720,100.549
1967.0363,100.559
1968.0005,100.584
1968.9647,100.615
1969.9290,100.644
1970.8932,100.664
1971.8574,100.676
1972.8217,100.682
1973.7859,100.686
1974.7501,100.689
1975.7144,100.692
1976.6786,100.695
1977.6428,100.697
1978.6071,100.696
1979.5713,100.695
1980.5355,100.693
1981.4998,100.69
1982.4640,100.688
1983.4282,100.684
1984.3925,100.678
1985.3567,100.669
1986.3209,100.657
1987.2852,100.642
1988.2494,100.626
1989.2136,100.609
1990.1779,100.596
1991.1421,100.59
1992.1063,100.595
1993.0706,100.607
1994.0348,100.622
1994.9990,100.633
1995.9633,100.639
1996.9275,100.639
1997.8917,100.637
1998.8560,100.635
1999.8202,100.636
2000.7844,100.639
2001.7487,100.643
2002.7129,100.644
2003.6771,100.64
2004.6414,100.63
2005.6056,100.618
2006.5698,100.608
2007.5341,100.603
2008.4983,100.602
2009.4625,100.605
2010.4268,100.607
2011.3910,100.603
2012.3552,100.592
2013.3195,100.573
2014.2837,100.55
2015.2479,100.528
2016.2122,100.515
2017.1764,100.514
2018.1406,100.525
2019.1049,100.543
2020.0691,100.559
2021.0333,100.57
2021.9976,100.575
2022.9618,100.576
2023.9260,100.575
2024.8903,100.576
2025.8545,100.578
2026.8187,100.581
2027.7830,100.582
2028.7472,100.582
2029.7114,100.58
2030.6757,100.577
2031.6399,100.576
2032.6041,100.575
2033.5684,100.577
2034.5326,100.58
2035.4968,100.583
2036.4611,100.585
2037.4253,100.583
2038.3895,100.578
2039.3538,100.57
2040.3180,100.564
2041.2822,100.563
2042.2465,100.57
2043.2107,100.581
2044.1749,100.594
2045.1392,100.605
2046.1034,100.61
2047.0676,100.61
2048.0320,100.607
2048.9961,100.604
2049.9604,100.603
2050.9246,100.604
2051.8889,100.608
2052.8530,100.614
2053.8174,100.619
2054.7815,100.622
2055.7458,100.622
2056.7100,100.62
2057.6743,100.617
2058.6384,100.613
2059.6028,100.609
2060.5669,100.603
2061.5313,100.595
2062.4954,100.587
2063.4597,100.582
2064.4238,100.582
2065.3882,100.589
2066.3523,100.602
2067.3167,100.617
2068.2808,100.631
2069.2451,100.64
2070.2092,100.646
2071.1736,100.65
2072.1377,100.652
2073.1021,100.654
2074.0662,100.655
2075.0305,100.655
2075.9946,100.654
2076.9590,100.654
2077.9231,100.653
2078.8875,100.652
2079.8516,100.653
2080.8159,100.654
2081.7800,100.656
2082.7444,100.658
2083.7085,100.66
2084.6729,100.66
2085.6370,100.66
2086.6013,100.659
2087.5654,100.658
2088.5298,100.658
2089.4939,100.66
2090.4583,100.661
2091.4224,100.662
2092.3867,100.662
2093.3508,100.662
2094.3152,100.663
2095.2793,100.666
2096.2437,100.669
2097.2078,100.674
2098.1721,100.678
2099.1362,100.682
2100.1006,100.682
2101.0647,100.683
2102.0291,100.683
2102.9932,100.682
2103.9575,100.68
2104.9216,100.678
2105.8860,100.677
2106.8501,100.677
2107.8145,100.677
2108.7786,100.676
2109.7429,100.673
2110.7070,100.669
2111.6714,100.664
2112.6355,100.66
2113.5999,100.659
2114.5640,100.662
2115.5283,100.668
2116.4924,100.675
2117.4568,100.68
2118.4209,100.682
2119.3853,100.68
2120.3494,100.676
2121.3137,100.671
2122.2778,100.668
2123.2422,100.666
2124.2063,100.666
2125.1707,100.668
2126.1348,100.67
2127.0991,100.674
2128.0632,100.678
2129.0276,100.681
2129.9917,100.685
2130.9561,100.687
2131.9202,100.687
2132.8845,100.684
2133.8486,100.679
2134.8130,100.674
2135.7771,100.671
2136.7415,100.673
2137.7056,100.679
2138.6699,100.688
2139.6340,100.698
2140.5984,100.707
2141.5625,100.714
2142.5269,100.719
2143.4910,100.723
2144.4553,100.727
2145.4194,100.731
2146.3838,100.735
2147.3479,100.737
2148.3123,100.738
2149.2764,100.738
2150.2407,100.737
2151.2048,100.734
2152.1692,100.732
2153.1333,100.729
2154.0977,100.729
2155.0618,100.73
2156.0261,100.734
2156.9902,100.74
2157.9546,100.745
2158.9187,100.749
2159.8831,100.752
2160.8472,100.753
2161.8115,100.754
2162.7756,100.757
2163.7400,100.76
2164.7041,100.763
2165.6685,100.765
2166.6326,100.763
2167.5969,100.759
2168.5610,100.755
2169.5254,100.752
2170.4895,100.752
2171.4539,100.754
2172.4180,100.758
2173.3823,100.76
2174.3464,100.76
2175.3108,100.758
2176.2749,100.754
2177.2393,100.75
2178.2034,100.746
2179.1677,100.743
2180.1318,100.739
2181.0962,100.736
2182.0603,100.733
2183.0247,100.731
2183.9888,100.731
2184.9531,100.732
2185.9172,100.735
2186.8816,100.738
2187.8457,100.742
2188.8101,100.744
2189.7742,100.744
2190.7385,100.744
2191.7026,100.743
2192.6670,100.743
2193.6311,100.744
2194.5955,100.747
2195.5596,100.748
2196.5239,100.749
2197.4880,100.747
2198.4524,100.744
2199.4165,100.74
2200.3809,100.736
2201.3450,100.734
2202.3093,100.732
2203.2734,100.731
2204.2378,100.731
2205.2019,100.731
2206.1663,100.732
2207.1304,100.733
2208.0947,100.735
2209.0588,100.736
2210.0232,100.736
2210.9873,100.733
2211.9517,100.727
2212.9158,100.72
2213.8801,100.712
2214.8442,100.706
2215.8086,100.702
2216.7727,100.7
2217.7371,100.697
2218.7012,100.692
2219.6655,100.686
2220.6296,100.68
2221.5940,100.676
2222.5581,100.675
2223.5225,100.677
2224.4866,100.68
2225.4509,100.681
2226.4150,100.678
2227.3794,100.672
2228.3435,100.663
2229.3079,100.652
2230.2720,100.641
2231.2363,100.63
2232.2004,100.62
2233.1648,100.612
2234.1289,100.606
2235.0933,100.602
2236.0574,100.6
2237.0217,100.598
2237.9858,100.597
2238.9502,100.594
2239.9143,100.589
2240.8787,100.58
2241.8428,100.569
2242.8071,100.556
2243.7712,100.543
2244.7356,100.532
2245.6997,100.521
2246.6641,100.512
2247.6282,100.502
2248.5925,100.492
2249.5566,100.48
2250.5210,100.466
2251.4851,100.451
2252.4495,100.436
2253.4136,100.421
2254.3779,100.406
2255.3420,100.391
2256.3064,100.377
2257.2705,100.363
2258.2349,100.348
2259.1990,100.332
2260.1633,100.316
2261.1274,100.299
2262.0918,100.282
2263.0559,100.268
2264.0203,100.258
2264.9844,100.252
2265.9487,100.251
2266.9128,100.25
2267.8772,100.248
2268.8413,100.242
2269.8057,100.231
2270.7698,100.219
2271.7341,100.209
2272.6982,100.203
2273.6626,100.203
2274.6267,100.208
2275.5911,100.216
2276.5552,100.224
2277.5195,100.232
2278.4836,100.24
2279.4480,100.249
2280.4121,100.258
2281.3765,100.265
2282.3406,100.265
2283.3049,100.256
2284.2690,100.237
2285.2334,100.209
2286.1975,100.173
2287.1619,100.133
2288.1260,100.091
2289.0903,100.049
2290.0544,100.007
2291.0188,99.9654
2291.9829,99.9266
2292.9473,99.8937
2293.9114,99.8698
2294.8757,99.8559
2295.8398,99.8509
2296.8042,99.8518
2297.7683,99.8573
2298.7327,99.8687
2299.6968,99.8898
2300.6611,99.9238
2301.6252,99.9702
2302.5896,100.023
2303.5537,100.07
2304.5181,100.102
2305.4822,100.113
2306.4465,100.107
2307.4106,100.098
2308.3750,100.104
2309.3391,100.139
2310.3035,100.207
2311.2676,100.297
2312.2319,100.39
2313.1960,100.468
2314.1604,100.523
2315.1245,100.562
2316.0889,100.6
2317.0530,100.654
2318.0173,100.729
2318.9814,100.814
2319.9458,100.881
2320.9099,100.888
2321.8743,100.804
2322.8384,100.622
2323.8027,100.37
2324.7668,100.11
2325.7312,99.9082
2326.6953,99.8107
2327.6597,99.8246
2328.6238,99.9125
2329.5881,100.007
2330.5522,100.039
2331.5166,99.9738
2332.4807,99.8218
2333.4451,99.631
2334.4092,99.4551
2335.3735,99.3267
2336.3376,99.2466
2337.3020,99.1898
2338.2661,99.1232
2339.2305,99.0264
2340.1946,98.9112
2341.1589,98.8336
2342.1230,98.885
2343.0874,99.1222
2344.0515,99.4579
2345.0159,99.6782
2345.9800,99.6444
2346.9443,99.4166
2347.9084,99.1668
2348.8728,99.0403
2349.8369,99.0836
2350.8013,99.2369
2351.7654,99.3723
2352.7297,99.3751
2353.6938,99.2293
2354.6582,99.0258
2355.6223,98.8348
2356.5867,98.6457
2357.5508,98.4298
2358.5151,98.2101
2359.4792,98.0532
2360.4436,98.0041
2361.4077,98.0565
2362.3721,98.1851
2363.3362,98.3815
2364.3005,98.6492
2365.2646,98.98
2366.2290,99.3462
2367.1931,99.7156
2368.1575,100.065
2369.1216,100.384
2370.0859,100.664
2371.0500,100.898
2372.0144,101.078
2372.9785,101.196
2373.9429,101.246
2374.9070,101.226
2375.8713,101.141
2376.8354,101.003
2377.7998,100.83
2378.7639,100.644
2379.7283,100.464
2380.6924,100.309
2381.6567,100.189
2382.6208,100.109
2383.5852,100.068
2384.5493,100.058
2385.5137,100.069
2386.4778,100.09
2387.4421,100.111
2388.4063,100.127
2389.3706,100.135
2390.3347,100.137
2391.2991,100.136
2392.2632,100.135
2393.2275,100.135
2394.1917,100.138
2395.1560,100.142
2396.1201,100.146
2397.0845,100.151
2398.0486,100.156
2399.0129,100.161
2399.9771,100.165
2400.9414,100.167
2401.9055,100.168
2402.8699,100.166
2403.8340,100.164
2404.7983,100.163
2405.7625,100.164
2406.7268,100.167
2407.6909,100.17
2408.6553,100.173
2409.6194,100.174
2410.5837,100.174
2411.5479,100.173
2412.5122,100.173
2413.4763,100.174
2414.4407,100.176
2415.4048,100.18
2416.3691,100.186
2417.3333,100.192
2418.2976,100.2
2419.2617,100.209
2420.2261,100.217
2421.1902,100.222
2422.1545,100.225
2423.1187,100.224
2424.0830,100.221
2425.0471,100.219
2426.0115,100.217
2426.9756,100.219
2427.9399,100.223
2428.9041,100.228
2429.8684,100.235
2430.8325,100.242
2431.7969,100.25
2432.7610,100.256
2433.7253,100.261
2434.6895,100.263
2435.6538,100.261
2436.6179,100.257
2437.5823,100.253
2438.5464,100.251
2439.5107,100.254
2440.4749,100.261
2441.4392,100.27
2442.4033,100.28
2443.3677,100.288
2444.3318,100.295
2445.2961,100.3
2446.2603,100.302
2447.2246,100.301
2448.1887,100.296
2449.1531,100.288
2450.1172,100.278
2451.0815,100.27
2452.0457,100.266
2453.0100,100.267
2453.9741,100.273
2454.9385,100.281
2455.9026,100.287
2456.8669,100.288
2457.8311,100.284
2458.7954,100.276
2459.7595,100.267
2460.7239,100.261
2461.6880,100.259
2462.6523,100.262
2463.6165,100.267
2464.5808,100.271
2465.5449,100.274
2466.5093,100.274
2467.4734,100.271
2468.4377,100.268
2469.4019,100.264
2470.3662,100.261
2471.3303,100.26
2472.2947,100.261
2473.2588,100.265
2474.2231,100.272
2475.1873,100.28
2476.1516,100.287
2477.1157,100.289
2478.0801,100.287
2479.0442,100.282
2480.0085,100.277
2480.9727,100.275
2481.9370,100.276
2482.9011,100.28
2483.8655,100.284
2484.8296,100.286
2485.7939,100.286
2486.7581,100.285
2487.7224,100.285
2488.6865,100.288
2489.6509,100.293
2490.6150,100.297
2491.5793,100.298
2492.5435,100.295
2493.5078,100.29
2494.4719,100.287
2495.4363,100.286
2496.4004,100.29
2497.3647,100.294
2498.3289,100.297
2499.2932,100.296
2500.2573,100.29
2501.2217,100.281
2502.1858,100.274
2503.1501,100.27
2504.1143,100.271
2505.0786,100.276
2506.0427,100.282
2507.0071,100.284
2507.9712,100.282
2508.9355,100.275
2509.8997,100.265
2510.8640,100.252
2511.8281,100.242
2512.7925,100.234
2513.7566,100.232
2514.7209,100.235
2515.6851,100.243
2516.6494,100.253
2517.6135,100.261
2518.5779,100.264
2519.5420,100.26
2520.5063,100.252
2521.4705,100.241
2522.4348,100.231
2523.3989,100.225
2524.3633,100.221
2525.3274,100.22
2526.2917,100.218
2527.2559,100.216
2528.2202,100.215
2529.1843,100.214
2530.1487,100.214
2531.1128,100.212
2532.0771,100.207
2533.0413,100.199
2534.0056,100.19
2534.9697,100.181
2535.9341,100.175
2536.8982,100.173
2537.8625,100.174
2538.8267,100.176
2539.7910,100.178
2540.7551,100.178
2541.7195,100.176
2542.6836,100.173
2543.6479,100.17
2544.6121,100.167
2545.5764,100.167
2546.5405,100.169
2547.5049,100.172
2548.4690,100.175
2549.4333,100.176
2550.3975,100.177
2551.3618,100.178
2552.3259,100.179
2553.2903,100.182
2554.2544,100.184
2555.2188,100.187
2556.1829,100.189
2557.1472,100.191
2558.1113,100.194
2559.0757,100.196
2560.0398,100.197
2561.0042,100.196
2561.9683,100.193
2562.9326,100.187
2563.8967,100.18
2564.8611,100.175
2565.8252,100.173
2566.7896,100.175
2567.7537,100.18
2568.7180,100.186
2569.6821,100.19
2570.6465,100.191
2571.6106,100.188
2572.5750,100.182
2573.5391,100.174
2574.5034,100.168
2575.4675,100.165
2576.4319,100.166
2577.3960,100.17
2578.3604,100.176
2579.3245,100.183
2580.2888,100.191
2581.2529,100.2
2582.2173,100.209
2583.1814,100.216
2584.1458,100.221
2585.1099,100.222
2586.0742,100.22
2587.0383,100.216
2588.0027,100.21
2588.9668,100.204
2589.9312,100.198
2590.8953,100.194
2591.8596,100.191
2592.8237,100.19
2593.7881,100.192
2594.7522,100.195
2595.7166,100.199
2596.6807,100.202
2597.6450,100.205
2598.6091,100.206
2599.5735,100.205
2600.5376,100.203
2601.5020,100.199
2602.4661,100.193
2603.4304,100.187
2604.3945,100.182
2605.3589,100.177
2606.3230,100.175
2607.2874,100.175
2608.2515,100.176
2609.2158,100.179
2610.1799,100.181
2611.1443,100.183
2612.1084,100.183
2613.0728,100.183
2614.0369,100.181
2615.0012,100.18
2615.9653,100.179
2616.9297,100.178
2617.8938,100.178
2618.8582,100.177
2619.8223,100.177
2620.7866,100.178
2621.7507,100.179
2622.7151,100.182
2623.6792,100.183
2624.6436,100.183
2625.6077,100.182
2626.5720,100.179
2627.5361,100.176
2628.5005,100.174
2629.4646,100.174
2630.4290,100.174
2631.3931,100.174
2632.3574,100.173
2633.3215,100.173
2634.2859,100.173
2635.2500,100.175
2636.2144,100.179
2637.1785,100.186
2638.1428,100.194
2639.1069,100.203
2640.0713,100.21
2641.0354,100.215
2641.9998,100.217
2642.9639,100.217
2643.9282,100.216
2644.8923,100.215
2645.8567,100.216
2646.8208,100.216
2647.7852,100.215
2648.7493,100.212
2649.7136,100.206
2650.6777,100.199
2651.6421,100.194
2652.6062,100.193
2653.5706,100.197
2654.5347,100.204
2655.4990,100.212
2656.4631,100.217
2657.4275,100.221
2658.3916,100.222
2659.3560,100.223
2660.3201,100.224
2661.2844,100.225
2662.2485,100.228
2663.2129,100.231
2664.1770,100.237
2665.1414,100.246
2666.1055,100.257
2667.0698,100.269
2668.0339,100.281
2668.9983,100.29
2669.9624,100.296
2670.9268,100.299
2671.8909,100.301
2672.8552,100.303
2673.8193,100.306
2674.7837,100.311
2675.7478,100.315
2676.7122,100.318
2677.6763,100.317
2678.6406,100.312
2679.6047,100.306
2680.5691,100.3
2681.5332,100.297
2682.4976,100.299
2683.4617,100.303
2684.4260,100.307
2685.3901,100.308
2686.3545,100.303
2687.3186,100.294
2688.2830,100.283
2689.2471,100.275
2690.2114,100.272
2691.1755,100.273
2692.1399,100.278
2693.1040,100.283
2694.0684,100.287
2695.0325,100.29
2695.9968,100.291
2696.9609,100.293
2697.9253,100.294
2698.8894,100.293
2699.8538,100.291
2700.8179,100.285
2701.7822,100.276
2702.7463,100.265
2703.7107,100.257
2704.6748,100.251
2705.6392,100.249
2706.6033,100.248
2707.5676,100.247
2708.5317,100.245
2709.4961,100.241
2710.4602,100.234
2711.4246,100.226
2712.3887,100.216
2713.3530,100.203
2714.3171,100.188
2715.2815,100.17
2716.2456,100.153
2717.2100,100.138
2718.1741,100.126
2719.1384,100.12
2720.1025,100.118
2721.0669,100.117
2722.0310,100.115
2722.9954,100.109
2723.9595,100.098
2724.9238,100.082
2725.8879,100.063
2726.8523,100.044
2727.8164,100.028
2728.7808,100.016
2729.7449,100.007
2730.7092,100.002
2731.6733,99.9999
2732.6377,100.001
2733.6018,100.006
2734.5662,100.013
2735.5303,100.02
2736.4946,100.026
2737.4587,100.03
2738.4231,100.032
2739.3872,100.037
2740.3516,100.047
2741.3157,100.063
2742.2800,100.085
2743.2441,100.109
2744.2085,100.135
2745.1726,100.16
2746.1370,100.184
2747.1011,100.203
2748.0654,100.216
2749.0295,100.221
2749.9939,100.22
2750.9580,100.214
2751.9224,100.208
2752.8865,100.206
2753.8508,100.207
2754.8149,100.21
2755.7793,100.211
2756.7434,100.208
2757.7078,100.201
2758.6719,100.189
2759.6362,100.177
2760.6003,100.166
2761.5647,100.159
2762.5288,100.155
2763.4932,100.154
2764.4573,100.154
2765.4216,100.153
2766.3857,100.149
2767.3501,100.144
2768.3142,100.138
2769.2786,100.131
2770.2427,100.121
2771.2070,100.107
2772.1711,100.086
2773.1355,100.056
2774.0996,100.021
2775.0640,99.9861
2776.0281,99.9559
2776.9924,99.9321
2777.9565,99.9116
2778.9209,99.8886
2779.8850,99.8585
2780.8494,99.8205
2781.8135,99.7786
2782.7778,99.7403
2783.7419,99.7125
2784.7063,99.692
2785.6704,99.676
2786.6348,99.6597
2787.5989,99.6396
2788.5632,99.6146
2789.5273,99.5862
2790.4917,99.5568
2791.4558,99.5292
2792.4202,99.5048
2793.3843,99.4836
2794.3486,99.4639
2795.3127,99.4428
2796.2771,99.4177
2797.2412,99.387
2798.2056,99.3508
2799.1697,99.3108
2800.1340,99.269
2801.0981,99.2272
2802.0625,99.1863
2803.0266,99.1464
2803.9910,99.1072
2804.9551,99.0683
2805.9194,99.0285
2806.8835,98.9862
2807.8479,98.9393
2808.8120,98.8864
2809.7764,98.8272
2810.7405,98.7628
2811.7048,98.6947
2812.6689,98.6237
2813.6333,98.5491
2814.5974,98.4693
2815.5618,98.3825
2816.5259,98.2877
2817.4902,98.1852
2818.4543,98.0755
2819.4187,97.9592
2820.3828,97.8359
2821.3472,97.7048
2822.3113,97.5652
2823.2756,97.4169
2824.2397,97.2603
2825.2041,97.0958
2826.1682,96.9228
2827.1326,96.7393
2828.0967,96.5427
2829.0610,96.33
2830.0251,96.0991
2830.9895,95.8494
2831.9536,95.5817
2832.9180,95.2976
2833.8821,94.999
2834.8464,94.6862
2835.8105,94.3584
2836.7749,94.014
2837.7390,93.6512
2838.7034,93.2688
2839.6675,92.8658
2840.6318,92.4397
2841.5959,91.9855
2842.5603,91.4976
2843.5244,90.974
2844.4888,90.4221
2845.4529,89.8628
2846.4172,89.3284
2847.3813,88.8544
2848.3457,88.4678
2849.3098,88.1783
2850.2742,87.9753
2851.2383,87.8351
2852.2026,87.7312
2853.1667,87.6438
2854.1311,87.5643
2855.0952,87.4922
2856.0596,87.4294
2857.0237,87.375
2857.9880,87.3231
2858.9521,87.2647
2859.9165,87.1914
2860.8806,87.0983
2861.8450,86.9851
2862.8091,86.8551
2863.7734,86.7137
2864.7375,86.5667
2865.7019,86.4197
2866.6660,86.2787
2867.6304,86.1497
2868.5945,86.0388
2869.5588,85.9513
2870.5229,85.89
2871.4873,85.8546
2872.4514,85.8408
2873.4158,85.8417
2874.3799,85.8488
2875.3442,85.8542
2876.3083,85.8513
2877.2727,85.8353
2878.2368,85.8034
2879.2012,85.7549
2880.1653,85.692
2881.1296,85.6197
2882.0938,85.5447
2883.0581,85.4735
2884.0222,85.4102
2884.9866,85.3548
2885.9507,85.3023
2886.9150,85.2444
2887.8792,85.1718
2888.8435,85.0784
2889.8076,84.9647
2890.7720,84.8392
2891.7361,84.7136
2892.7004,84.5958
2893.6646,84.4815
2894.6289,84.3527
2895.5930,84.1843
2896.5574,83.9591
2897.5215,83.6808
2898.4858,83.3775
2899.4500,83.0914
2900.4143,82.8593
2901.3784,82.6957
2902.3428,82.5866
2903.3069,82.4986
2904.2712,82.3951
2905.2354,82.2505
2906.1997,82.0545
2907.1638,81.8089
2908.1282,81.5201
2909.0923,81.195
2910.0566,80.8413
2911.0208,80.4701
2911.9851,80.0964
2912.9492,79.7373
2913.9136,79.408
2914.8777,79.1183
2915.8420,78.8724
2916.8062,78.6697
2917.7705,78.5069
2918.7346,78.3797
2919.6990,78.2842
2920.6631,78.2178
2921.6274,78.18
2922.5916,78.1721
2923.5559,78.1959
2924.5200,78.2522
2925.4844,78.3412
2926.4485,78.4617
2927.4128,78.6123
2928.3770,78.7916
2929.3413,78.9973
2930.3054,79.2259
2931.2698,79.4734
2932.2339,79.7358
2933.1982,80.0112
2934.1624,80.2988
2935.1267,80.5978
2936.0908,80.9055
2937.0552,81.216
2938.0193,81.5216
2938.9836,81.8148
2939.9478,82.0917
2940.9121,82.3524
2941.8762,82.5997
2942.8406,82.8354
2943.8047,83.0576
2944.7690,83.2589
2945.7332,83.4287
2946.6975,83.5571
2947.6616,83.6388
2948.6260,83.675
2949.5901,83.673
2950.5544,83.6431
2951.5186,83.5947
2952.4829,83.535
2953.4470,83.4688
2954.4114,83.3999
2955.3755,83.3329
2956.3398,83.2742
2957.3040,83.2303
2958.2683,83.2061
2959.2324,83.2031
2960.1968,83.2185
2961.1609,83.2471
2962.1252,83.2833
2963.0894,83.3242
2964.0537,83.3706
2965.0178,83.4261
2965.9822,83.4955
2966.9463,83.5834
2967.9106,83.6935
2968.8748,83.8301
2969.8391,83.9983
2970.8032,84.2027
2971.7676,84.4457
2972.7317,84.7248
2973.6960,85.0327
2974.6602,85.3592
2975.6245,85.6946
2976.5886,86.0329
2977.5530,86.3722
2978.5171,86.7135
2979.4814,87.0578
2980.4456,87.4024
2981.4099,87.7391
2982.3740,88.054
2983.3384,88.3332
2984.3025,88.5715
2985.2668,88.7812
2986.2310,88.9942
2987.1953,89.2534
2988.1594,89.5944
2989.1238,90.0261
2990.0879,90.5231
2991.0522,91.0347
2992.0164,91.5064
2992.9807,91.9034
2993.9448,92.2218
2994.9092,92.4842
2995.8733,92.7236
2996.8376,92.9653
2997.8018,93.2191
2998.7661,93.4812
2999.7302,93.7428
3000.6946,93.9981
3001.6587,94.2476
3002.6230,94.496
3003.5872,94.7485
3004.5515,95.0069
3005.5156,95.2687
3006.4800,95.5273
3007.4441,95.7747
3008.4084,96.0053
3009.3726,96.2178
3010.3369,96.4167
3011.3010,96.6101
3012.2654,96.8049
3013.2295,97.0035
3014.1938,97.2019
3015.1580,97.3926
3016.1223,97.5688
3017.0864,97.7278
3018.0508,97.8714
3019.0149,98.004
3019.9792,98.1295
3020.9434,98.25
3021.9077,98.3659
3022.8718,98.4775
3023.8362,98.5849
3024.8003,98.6883
3025.7646,98.7861
3026.7288,98.8759
3027.6931,98.9557
3028.6572,99.026
3029.6216,99.091
3030.5857,99.1568
3031.5500,99.2284
3032.5142,99.3067
3033.4785,99.3887
3034.4426,99.4689
3035.4070,99.5431
3036.3711,99.6098
3037.3354,99.6701
3038.2996,99.7251
3039.2639,99.7747
3040.2280,99.8172
3041.1924,99.8501
3042.1565,99.8724
3043.1208,99.8853
3044.0850,99.8923
3045.0493,99.8982
3046.0134,99.9076
3046.9778,99.923
3047.9419,99.9434
3048.9063,99.9649
3049.8704,99.9814
3050.8347,99.957
3051.7988,99.9139
3052.7632,99.8626
3053.7273,99.8097
3054.6917,99.7626
3055.6558,99.7262
3056.6201,99.7016
3057.5842,99.6856
3058.5486,99.6717
3059.5127,99.6529
3060.4771,99.6233
3061.4412,99.581
3062.4055,99.5286
3063.3696,99.4733
3064.3340,99.4232
3065.2981,99.3841
3066.2625,99.356
3067.2266,99.3338
3068.1909,99.3107
3069.1550,99.2827
3070.1194,99.2503
3071.0835,99.2169
3072.0479,99.185
3073.0120,99.1536
3073.9763,99.1185
3074.9404,99.0751
3075.9048,99.0222
3076.8689,98.9633
3077.8333,98.9053
3078.7974,98.855
3079.7617,98.8156
3080.7258,98.7863
3081.6902,98.7625
3082.6543,98.7389
3083.6187,98.7109
3084.5828,98.6765
3085.5471,98.6365
3086.5112,98.5929
3087.4756,98.548
3088.4397,98.5021
3089.4041,98.4536
3090.3682,98.3992
3091.3325,98.3367
3092.2966,98.2657
3093.2610,98.1889
3094.2251,98.1099
3095.1895,98.0316
3096.1536,97.955
3097.1179,97.8798
3098.0820,97.8054
3099.0464,97.7324
3100.0105,97.6624
3100.9749,97.5968
3101.9390,97.5359
3102.9033,97.4792
3103.8674,97.4257
3104.8318,97.3744
3105.7959,97.3238
3106.7603,97.2711
3107.7244,97.2125
3108.6887,97.1444
3109.6528,97.0653
3110.6172,96.9777
3111.5813,96.8871
3112.5457,96.8005
3113.5098,96.7232
3114.4741,96.6567
3115.4382,96.5981
3116.4026,96.542
3117.3667,96.4833
3118.3311,96.4191
3119.2952,96.3504
3120.2595,96.2799
3121.2236,96.2111
3122.1880,96.1458
3123.1521,96.0842
3124.1165,96.0252
3125.0806,95.9679
3126.0449,95.9111
3127.0090,95.8534
3127.9734,95.7923
3128.9375,95.7253
3129.9019,95.6512
3130.8660,95.5712
3131.8303,95.4896
3132.7944,95.4117
3133.7588,95.3416
3134.7229,95.2803
3135.6873,95.225
3136.6514,95.1713
3137.6157,95.1148
3138.5798,95.0527
3139.5442,94.984
3140.5083,94.9094
3141.4727,94.8305
3142.4368,94.7494
3143.4011,94.6679
3144.3652,94.588
3145.3296,94.511
3146.2937,94.4383
3147.2581,94.3707
3148.2222,94.308
3149.1865,94.2484
3150.1506,94.1886
3151.1150,94.1246
3152.0791,94.0536
3153.0435,93.9749
3154.0076,93.8907
3154.9719,93.8044
3155.9360,93.7196
3156.9004,93.6382
3157.8645,93.5603
3158.8289,93.4848
3159.7930,93.4101
3160.7573,93.3346
3161.7214,93.2574
3162.6858,93.1783
3163.6499,93.0986
3164.6143,93.0205
3165.5784,92.9464
3166.5427,92.8774
3167.5068,92.8128
3168.4712,92.7492
3169.4353,92.7279
3170.3997,92.6539
3171.3638,92.571
3172.3281,92.4803
3173.2922,92.3857
3174.2566,92.2919
3175.2207,92.2035
3176.1851,92.1239
3177.1492,92.0541
3178.1135,91.9919
3179.0776,91.9326
3180.0420,91.8713
3181.0061,91.8046
3181.9705,91.7328
3182.9346,91.6589
3183.8989,91.5865
3184.8630,91.5171
3185.8274,91.4494
3186.7915,91.3804
3187.7559,91.3084
3188.7200,91.2347
3189.6843,91.163
3190.6484,91.0964
3191.6128,91.0346
3192.5769,90.9738
3193.5413,90.9085
3194.5054,90.8358
3195.4697,90.7572
3196.4338,90.6785
3197.3982,90.6057
3198.3623,90.542
3199.3267,90.4863
3200.2908,90.4351
3201.2551,90.3847
3202.2192,90.3332
3203.1836,90.2797
3204.1477,90.2235
3205.1121,90.1634
3206.0762,90.0989
3207.0405,90.0311
3208.0046,89.9633
3208.9690,89.8989
3209.9331,89.8397
3210.8975,89.7843
3211.8616,89.7293
3212.8259,89.672
3213.7900,89.612
3214.7544,89.5519
3215.7185,89.4951
3216.6829,89.4434
3217.6470,89.3958
3218.6113,89.3492
3219.5754,89.3007
3220.5398,89.2489
3221.5039,89.1952
3222.4683,89.1418
3223.4324,89.091
3224.3967,89.0434
3225.3608,88.9984
3226.3252,88.9547
3227.2893,88.9113
3228.2537,88.8676
3229.2178,88.8236
3230.1821,88.7791
3231.1462,88.7339
3232.1106,88.6876
3233.0747,88.6399
3234.0391,88.5913
3235.0032,88.5419
3235.9675,88.492
3236.9316,88.441
3237.8960,88.3879
3238.8601,88.3322
3239.8245,88.2744
3240.7886,88.2168
3241.7529,88.1632
3242.7170,88.1175
3243.6814,88.0824
3244.6455,88.0572
3245.6099,88.0376
3246.5740,88.0169
3247.5383,87.9891
3248.5024,87.9508
3249.4668,87.9026
3250.4309,87.8475
3251.3953,87.7894
3252.3594,87.7312
3253.3237,87.6743
3254.2878,87.6198
3255.2522,87.5698
3256.2163,87.5275
3257.1807,87.4955
3258.1448,87.473
3259.1091,87.4551
3260.0732,87.4342
3261.0376,87.4033
3262.0017,87.3598
3262.9661,87.3068
3263.9302,87.2501
3264.8945,87.1949
3265.8586,87.143
3266.8230,87.0924
3267.7871,87.0407
3268.7515,86.9876
3269.7156,86.9362
3270.6799,86.8909
3271.6440,86.8545
3272.6084,86.8261
3273.5725,86.8013
3274.5369,86.7748
3275.5010,86.7441
3276.4653,86.71
3277.4294,86.676
3278.3938,86.6457
3279.3579,86.6202
3280.3223,86.5981
3281.2864,86.5763
3282.2507,86.5518
3283.2148,86.5229
3284.1792,86.4891
3285.1433,86.4507
3286.1077,86.4082
3287.0718,86.3627
3288.0361,86.3155
3289.0002,86.269
3289.9646,86.2261
3290.9287,86.1895
3291.8931,86.1603
3292.8572,86.1378
3293.8215,86.1188
3294.7856,86.0991
3295.7500,86.074
3296.7141,86.0409
3297.6785,85.9997
3298.6426,85.9539
3299.6069,85.9088
3300.5710,85.8698
3301.5354,85.8391
3302.4995,85.8152
3303.4639,85.7936
3304.4280,85.7691
3305.3923,85.7394
3306.3564,85.706
3307.3208,85.6733
3308.2849,85.6461
3309.2493,85.6263
3310.2134,85.6125
3311.1777,85.6009
3312.1418,85.5875
3313.1062,85.5705
3314.0703,85.5498
3315.0347,85.526
3315.9988,85.4997
3316.9631,85.4704
3317.9272,85.4385
3318.8916,85.4054
3319.8557,85.3743
3320.8201,85.3478
3321.7842,85.3265
3322.7485,85.308
3323.7126,85.2877
3324.6770,85.2614
3325.6411,85.2283
3326.6055,85.1907
3327.5696,85.153
3328.5339,85.1186
3329.4980,85.0886
3330.4624,85.0625
3331.4265,85.0398
3332.3909,85.0213
3333.3550,85.0087
3334.3193,85.0028
3335.2834,85.0022
3336.2478,85.0031
3337.2119,85.0014
3338.1763,84.9946
3339.1404,84.9836
3340.1047,84.9703
3341.0688,84.9561
3342.0332,84.9402
3342.9973,84.9209
3343.9617,84.8974
3344.9258,84.8717
3345.8901,84.8482
3346.8542,84.8314
3347.8186,84.8231
3348.7827,84.8214
3349.7471,84.8219
3350.7112,84.8203
3351.6755,84.8144
3352.6396,84.8045
3353.6040,84.7919
3354.5681,84.7779
3355.5325,84.7633
3356.4966,84.7487
3357.4609,84.7349
3358.4250,84.7225
3359.3894,84.7111
3360.3535,84.6992
3361.3179,84.6857
3362.2820,84.671
3363.2463,84.6583
3364.2104,84.6522
3365.1748,84.6563
3366.1389,84.6701
3367.1033,84.6889
3368.0674,84.7061
3369.0317,84.7169
3369.9958,84.7207
3370.9602,84.7203
3371.9243,84.7198
3372.8887,84.7212
3373.8528,84.7234
3374.8171,84.7238
3375.7813,84.7202
3376.7456,84.7131
3377.7097,84.7053
3378.6741,84.7004
3379.6382,84.7007
3380.6025,84.7065
3381.5667,84.716
3382.5310,84.7268
3383.4951,84.7367
3384.4595,84.744
3385.4236,84.7481
3386.3879,84.7501
3387.3521,84.7533
3388.3164,84.7621
3389.2805,84.7799
3390.2449,84.807
3391.2090,84.8398
3392.1733,84.8726
3393.1375,84.9011
3394.1018,84.9255
3395.0659,84.9495
3396.0303,84.9773
3396.9944,85.0092
3397.9587,85.0404
3398.9229,85.0635
3399.8872,85.0742
3400.8513,85.0743
3401.8157,85.0712
3402.7798,85.0741
3403.7441,85.0893
3404.7083,85.118
3405.6726,85.1567
3406.6367,85.2
3407.6011,85.2422
3408.5652,85.2793
3409.5295,85.3091
3410.4937,85.3318
3411.4580,85.35
3412.4221,85.3675
3413.3865,85.3866
3414.3506,85.4069
3415.3149,85.4254
3416.2791,85.4387
3417.2434,85.4472
3418.2075,85.4573
3419.1719,85.4799
3420.1360,85.5242
3421.1003,85.5915
3422.0645,85.6722
3423.0288,85.7508
3423.9929,85.8136
3424.9573,85.8558
3425.9214,85.8827
3426.8857,85.9063
3427.8499,85.939
3428.8142,85.9878
3429.7783,86.0514
3430.7427,86.1227
3431.7068,86.1933
3432.6711,86.2575
3433.6353,86.3135
3434.5996,86.3615
3435.5637,86.4021
3436.5281,86.4358
3437.4922,86.4632
3438.4565,86.487
3439.4207,86.5104
3440.3850,86.5359
3441.3491,86.5639
3442.3135,86.5934
3443.2776,86.6248
3444.2419,86.6624
3445.2061,86.7137
3446.1704,86.7851
3447.1345,86.8755
3448.0989,86.9751
3449.0630,87.0698
3450.0273,87.1499
3450.9915,87.2135
3451.9558,87.2656
3452.9199,87.3132
3453.8843,87.3611
3454.8484,87.4106
3455.8127,87.4599
3456.7769,87.5077
3457.7412,87.5541
3458.7053,87.601
3459.6697,87.6505
3460.6338,87.7032
3461.5981,87.758
3462.5623,87.8133
3463.5266,87.8691
3464.4907,87.9274
3465.4551,87.9909
3466.4192,88.0604
3467.3835,88.1331
3468.3477,88.2031
3469.3120,88.2646
3470.2761,88.3164
3471.2405,88.3631
3472.2046,88.4135
3473.1689,88.4753
3474.1331,88.549
3475.0974,88.6269
3476.0615,88.6974
3477.0259,88.7524
3477.9900,88.793
3478.9543,88.829
3479.9185,88.8733
3480.8828,88.934
3481.8469,89.0085
3482.8113,89.0863
3483.7754,89.157
3484.7397,89.2178
3485.7039,89.2749
3486.6682,89.3388
3487.6323,89.4169
3488.5967,89.5084
3489.5608,89.6044
3490.5251,89.6933
3491.4893,89.7676
3492.4536,89.8272
3493.4177,89.879
3494.3821,89.9316
3495.3462,89.9897
3496.3105,90.0493
3497.2747,90.1001
3498.2390,90.1336
3499.2031,90.1502
3500.1675,90.1626
3501.1316,90.1924
3502.0959,90.2588
3503.0601,90.3639
3504.0244,90.4881
3504.9885,90.6046
3505.9529,90.6975
3506.9170,90.7692
3507.8813,90.8347
3508.8455,90.9103
3509.8098,91.0038
3510.7739,91.1097
3511.7383,91.2153
3512.7024,91.3112
3513.6667,91.3972
3514.6309,91.4785
3515.5952,91.5592
3516.5593,91.6382
3517.5237,91.7099
3518.4878,91.7686
3519.4521,91.8132
3520.4163,91.8475
3521.3806,91.8784
3522.3447,91.9117
3523.3091,91.9506
3524.2732,91.9966
3525.2375,92.0534
3526.2017,92.129
3527.1660,92.2317
3528.1301,92.3618
3529.0945,92.5073
3530.0586,92.6475
3531.0229,92.766
3531.9871,92.8588
3532.9514,92.9355
3533.9155,93.0121
3534.8799,93.1036
3535.8440,93.2144
3536.8083,93.3349
3537.7725,93.4454
3538.7368,93.5273
3539.7009,93.5733
3540.6653,93.5898
3541.6294,93.5933
3542.5938,93.6078
3543.5579,93.6605
3544.5222,93.7713
3545.4863,93.9361
3546.4507,94.123
3547.4148,94.2936
3548.3792,94.429
3549.3433,94.5364
3550.3076,94.6373
3551.2717,94.7528
3552.2361,94.892
3553.2002,95.0462
3554.1646,95.1955
3555.1287,95.3244
3556.0930,95.4296
3557.0571,95.5177
3558.0215,95.596
3558.9856,95.6669
3559.9500,95.7267
3560.9141,95.7701
3561.8784,95.7949
3562.8425,95.8047
3563.8069,95.8114
3564.7710,95.8461
3565.7354,95.9646
3566.6995,96.2039
3567.6638,96.5124
3568.6279,96.782
3569.5923,96.9554
3570.5564,97.0524
3571.5208,97.119
3572.4849,97.1854
3573.4492,97.2582
3574.4133,97.3326
3575.3777,97.4042
3576.3418,97.4744
3577.3062,97.5468
3578.2703,97.6204
3579.2346,97.6882
3580.1987,97.7413
3581.1631,97.7774
3582.1272,97.8031
3583.0916,97.8284
3584.0557,97.8582
3585.0200,97.8955
3585.9841,97.9546
3586.9485,98.0525
3587.9126,98.1693
3588.8770,98.2504
3589.8411,98.2669
3590.8054,98.2367
3591.7695,98.1924
3592.7339,98.1541
3593.6980,98.1276
3594.6624,98.1115
3595.6265,98.1011
3596.5908,98.0938
3597.5549,98.0976
3598.5193,98.13
3599.4834,98.2053
3600.4478,98.3209
3601.4119,98.4547
3602.3762,98.5815
3603.3403,98.6902
3604.3047,98.7832
3605.2688,98.8665
3606.2332,98.9441
3607.1973,99.0179
3608.1616,99.0831
3609.1257,99.1249
3610.0901,99.1294
3611.0542,99.0976
3612.0186,99.0477
3612.9829,99.0036
3613.9470,98.9832
3614.9114,98.9921
3615.8755,99.0267
3616.8398,99.0807
3617.8040,99.1504
3618.7683,99.2292
3619.7324,99.2906
3620.6968,99.2952
3621.6609,99.2357
3622.6252,99.1565
3623.5894,99.1212
3624.5537,99.1661
3625.5178,99.2776
3626.4822,99.404
3627.4463,99.5064
3628.4106,99.5885
3629.3748,99.6408
3630.3391,99.6225
3631.3032,99.5418
3632.2676,99.4613
3633.2317,99.4335
3634.1960,99.4665
3635.1602,99.5328
3636.1245,99.5956
3637.0886,99.6319
3638.0530,99.6339
3639.0171,99.6105
3639.9814,99.5721
3640.9456,99.5247
3641.9099,99.4774
3642.8740,99.4446
3643.8384,99.4363
3644.8025,99.4386
3645.7668,99.4022
3646.7310,99.2786
3647.6953,99.1319
3648.6594,99.1582
3649.6238,99.3842
3650.5879,99.5779
3651.5522,99.6112
3652.5164,99.5459
3653.4807,99.4741
3654.4448,99.4345
3655.4092,99.417
3656.3733,99.3945
3657.3376,99.3481
3658.3018,99.2808
3659.2661,99.2165
3660.2302,99.1799
3661.1946,99.1762
3662.1587,99.1913
3663.1230,99.2087
3664.0872,99.2268
3665.0515,99.2534
3666.0156,99.286
3666.9800,99.2978
3667.9441,99.2607
3668.9084,99.1882
3669.8726,99.13
3670.8369,99.1129
3671.8010,99.1242
3672.7654,99.1377
3673.7295,99.1326
3674.6938,99.1206
3675.6580,99.145
3676.6223,99.2079
3677.5864,99.2588
3678.5508,99.2745
3679.5149,99.2731
3680.4792,99.27
3681.4434,99.2624
3682.4077,99.247
3683.3718,99.2363
3684.3362,99.2502
3685.3003,99.2898
3686.2646,99.32
3687.2288,99.2922
3688.1931,99.2104
3689.1572,99.1529
3690.1216,99.1708
3691.0857,99.2276
3692.0500,99.2771
3693.0142,99.3137
3693.9785,99.3494
3694.9426,99.3924
3695.9070,99.4457
3696.8711,99.5114
3697.8354,99.5901
3698.7996,99.6776
3699.7639,99.7643
3700.7280,99.8402
3701.6924,99.896
3702.6565,99.9227
3703.6208,99.9186
3704.5850,99.8967
3705.5493,99.8769
3706.5134,99.867
3707.4778,99.855
3708.4419,99.8301
3709.4063,99.8288
3710.3704,99.9408
3711.3347,100.193
3712.2988,100.466
3713.2632,100.621
3714.2273,100.633
3715.1917,100.556
3716.1558,100.449
3717.1201,100.337
3718.0842,100.22
3719.0486,100.093
3720.0127,99.9624
3720.9771,99.8475
3721.9412,99.7685
3722.9055,99.7366
3723.8696,99.7483
3724.8340,99.7861
3725.7981,99.8261
3726.7625,99.8532
3727.7266,99.8714
3728.6909,99.8947
3729.6550,99.927
3730.6194,99.9484
3731.5835,99.9229
3732.5479,99.8348
3733.5120,99.7373
3734.4763,99.735
3735.4404,99.8516
3736.4048,99.9733
3737.3689,100.005
3738.3333,99.9833
3739.2974,100.035
3740.2617,100.214
3741.2258,100.515
3742.1902,100.837
3743.1543,101.029
3744.1187,100.992
3745.0828,100.749
3746.0471,100.417
3747.0112,100.117
3747.9756,99.924
3748.9397,99.8635
3749.9041,99.9465
3750.8682,100.139
3751.8325,100.303
3752.7966,100.313
3753.7610,100.19
3754.7251,100.035
3755.6895,99.9217
3756.6536,99.8755
3757.6179,99.8897
3758.5820,99.9456
3759.5464,100.013
3760.5105,100.063
3761.4749,100.086
3762.4390,100.093
3763.4033,100.098
3764.3674,100.11
3765.3318,100.127
3766.2959,100.146
3767.2603,100.167
3768.2244,100.191
3769.1887,100.223
3770.1528,100.258
3771.1172,100.282
3772.0813,100.286
3773.0457,100.272
3774.0098,100.255
3774.9741,100.245
3775.9382,100.237
3776.9026,100.219
3777.8667,100.188
3778.8311,100.153
3779.7952,100.118
3780.7595,100.076
3781.7236,100.027
3782.6880,99.9831
3783.6521,99.9608
3784.6165,99.9738
3785.5806,100.023
3786.5449,100.093
3787.5090,100.163
3788.4734,100.217
3789.4375,100.251
3790.4019,100.273
3791.3660,100.288
3792.3303,100.287
3793.2944,100.256
3794.2588,100.186
3795.2229,100.089
3796.1873,99.9982
3797.1514,99.9443
3798.1157,99.9362
3799.0798,99.957
3800.0442,99.9839
3801.0083,100.007
3801.9727,100.025
3802.9368,100.044
3803.9011,100.079
3804.8652,100.148
3805.8296,100.246
3806.7937,100.335
3807.7581,100.364
3808.7222,100.313
3809.6865,100.222
3810.6506,100.16
3811.6150,100.175
3812.5791,100.253
3813.5435,100.329
3814.5076,100.336
3815.4719,100.257
3816.4360,100.125
3817.4004,99.9933
3818.3645,99.9002
3819.3289,99.8693
3820.2930,99.9027
3821.2573,99.9649
3822.2214,99.9932
3823.1858,99.9568
3824.1499,99.8845
3825.1143,99.8298
3826.0784,99.8279
3827.0427,99.8814
3828.0068,99.9672
3828.9712,100.053
3829.9353,100.116
3830.8997,100.145
3831.8638,100.149
3832.8281,100.139
3833.7922,100.12
3834.7566,100.085
3835.7207,100.021
3836.6851,99.9277
3837.6492,99.8367
3838.6135,99.787
3839.5776,99.7928
3840.5420,99.8417
3841.5061,99.916
3842.4705,99.998
3843.4346,100.061
3844.3989,100.076
3845.3630,100.034
3846.3274,99.9622
3847.2915,99.9229
3848.2559,99.9792
3849.2200,100.16
3850.1843,100.429
3851.1484,100.696
3852.1128,100.889
3853.0769,101.006
3854.0413,101.007
3855.0054,100.818
3855.9697,100.506
3856.9338,100.218
3857.8982,100.05
3858.8623,100.011
3859.8267,100.046
3860.7908,100.078
3861.7551,100.065
3862.7192,100.027
3863.6836,100.019
3864.6477,100.072
3865.6121,100.167
3866.5762,100.263
3867.5405,100.314
3868.5046,100.294
3869.4690,100.211
3870.4331,100.11
3871.3975,100.04
3872.3616,100.015
3873.3259,100.024
3874.2900,100.051
3875.2544,100.089
3876.2185,100.135
3877.1829,100.179
3878.1470,100.199
3879.1113,100.186
3880.0754,100.151
3881.0398,100.126
3882.0039,100.139
3882.9683,100.199
3883.9324,100.289
3884.8967,100.373
3885.8608,100.414
3886.8252,100.399
3887.7893,100.342
3888.7537,100.27
3889.7178,100.203
3890.6821,100.154
3891.6462,100.125
3892.6106,100.109
3893.5747,100.093
3894.5391,100.083
3895.5032,100.097
3896.4675,100.136
3897.4316,100.181
3898.3960,100.204
3899.3601,100.196
3900.3245,100.164
3901.2886,100.123
3902.2529,100.093
3903.2170,100.088
3904.1814,100.107
3905.1455,100.129
3906.1099,100.139
3907.0740,100.139
3908.0383,100.14
3909.0024,100.153
3909.9668,100.176
3910.9309,100.204
3911.8953,100.231
3912.8594,100.253
3913.8237,100.266
3914.7878,100.267
3915.7522,100.258
3916.7163,100.242
3917.6807,100.226
3918.6448,100.205
3919.6091,100.177
3920.5732,100.142
3921.5376,100.108
3922.5017,100.08
3923.4661,100.061
3924.4302,100.044
3925.3945,100.023
3926.3586,99.9917
3927.3230,99.9555
3928.2871,99.9249
3929.2515,99.9111
3930.2156,99.9246
3931.1799,99.9707
3932.1440,100.042
3933.1084,100.116
3934.0725,100.173
3935.0369,100.204
3936.0010,100.215
3936.9653,100.212
3937.9294,100.198
3938.8938,100.172
3939.8579,100.139
3940.8223,100.106
3941.7864,100.087
3942.7507,100.092
3943.7148,100.114
3944.6792,100.137
3945.6433,100.147
3946.6077,100.135
3947.5718,100.105
3948.5361,100.069
3949.5002,100.044
3950.4646,100.038
3951.4287,100.049
3952.3931,100.07
3953.3572,100.095
3954.3215,100.118
3955.2856,100.136
3956.2500,100.146
3957.2141,100.149
3958.1785,100.147
3959.1426,100.146
3960.1069,100.15
3961.0710,100.159
3962.0354,100.173
3962.9995,100.185
3963.9639,100.191
3964.9280,100.188
3965.8923,100.176
3966.8564,100.16
3967.8208,100.142
3968.7849,100.126
3969.7493,100.114
3970.7134,100.107
3971.6777,100.106
3972.6418,100.11
3973.6062,100.119
3974.5703,100.13
3975.5347,100.141
3976.4988,100.152
3977.4631,100.162
3978.4272,100.172
3979.3916,100.179
3980.3557,100.183
3981.3201,100.18
3982.2842,100.172
3983.2485,100.159
3984.2126,100.147
3985.1770,100.143
3986.1411,100.148
3987.1055,100.16
3988.0696,100.173
3989.0339,100.175
3989.9980,100.16
3990.9624,100.129
3991.9265,100.094
3992.8909,100.07
3993.8550,100.067
3994.8193,100.084
3995.7834,100.113
3996.7478,100.138
3997.7119,100.151
3998.6763,100.153
3999.6404,100.151
4000.6047,99.9681

##### Extended Information
[Comments]
Sample name
Comment
User
Division
Company,HANKYONG

[Detailed Information]
Creation date,4/24/2024 11:27 AM

Data array type,Linear data array
Horizontal axis,Wavenumber [cm-1]
Vertical axis,%T
Start,649.893 cm-1
End,4000.6 cm-1
Data interval,0.964233 cm-1
Data points,3476    

[Measurement Information]
Model Name,FT/IR-4700typeA
Serial Number,D056761788

Accessory,ATR PRO ONE
Accessory S/N,C174761809
Incident angle,45 deg

Measurement Date,4/24/2024 11:23 AM

Light Source,Standard
Detector,TGS
Accumulation,32
Resolution,4 cm-1
Zero Filling,On
Apodization,Cosine
Gain,Auto (4)
Aperture,Auto (7.1 mm)
Scanning Speed,Auto (2 mm/sec)
Filter,Auto (30000 Hz)

