TITLE,
DATA TYPE,INFRARED SPECTRUM
ORIGIN,JASCO
OWNER,
DATE,24/04/24
TIME,10:52:22
SPECTROMETER/DATA SYSTEM,
LOCALE,1033
RESOLUTION,
DELTAX,0.964233
XUNITS,1/CM
YUNITS,TRANSMITTANCE
FIRSTX,  649.8934
LASTX, 4000.6047
NPOINTS,    3476
FIRSTY,    99.25440
MAXY,   101.06697
MINY,    67.07389
XYDATA
649.8934,99.2544
650.8576,99.2006
651.8218,99.1825
652.7861,99.1944
653.7503,99.2148
654.7145,99.2207
655.6788,99.193
656.6430,99.1222
657.6072,99.0154
658.5715,98.898
659.5357,98.8079
660.4999,98.7752
661.4642,98.7977
662.4284,98.8346
663.3926,98.8228
664.3569,98.6971
665.3211,98.3984
666.2853,97.8938
667.2496,97.2516
668.2138,96.7349
669.1780,96.6337
670.1423,96.905
671.1065,97.2821
672.0707,97.5842
673.0350,97.7563
673.9992,97.8028
674.9634,97.7511
675.9277,97.6418
676.8919,97.522
677.8561,97.4329
678.8204,97.4008
679.7846,97.4369
680.7488,97.5382
681.7131,97.6874
682.6773,97.856
683.6415,98.0143
684.6058,98.1424
685.5700,98.2346
686.5342,98.2939
687.4985,98.324
688.4627,98.3238
689.4269,98.2901
690.3912,98.2261
691.3554,98.1543
692.3196,98.1256
693.2839,98.2039
694.2481,98.415
695.2123,98.7119
696.1766,99.0098
697.1408,99.2404
698.1050,99.3747
699.0693,99.4212
700.0335,99.4129
700.9977,99.3882
701.9620,99.3748
702.9262,99.3831
703.8904,99.4103
704.8547,99.4473
705.8189,99.4832
706.7831,99.5054
707.7474,99.4994
708.7116,99.4516
709.6758,99.3548
710.6401,99.2129
711.6043,99.0401
712.5685,98.8535
713.5328,98.6628
714.4970,98.464
715.4612,98.3565
716.4255,98.0974
717.3897,97.818
718.3539,97.5506
719.3182,97.3395
720.2824,97.2168
721.2466,97.1794
722.2109,97.1876
723.1751,97.1867
724.1393,97.1357
725.1036,97.0247
726.0678,96.8736
727.0320,96.7177
727.9963,96.5879
728.9605,96.4952
729.9247,96.4279
730.8890,96.3606
731.8532,96.2682
732.8174,96.1354
733.7817,95.9584
734.7459,95.7391
735.7101,95.4776
736.6744,95.169
737.6386,94.8063
738.6028,94.3874
739.5671,93.9216
740.5313,93.4299
741.4955,92.9401
742.4598,92.4776
743.4240,92.059
744.3882,91.6904
745.3525,91.37
746.3167,91.0925
747.2809,90.8528
748.2452,90.6483
749.2094,90.4801
750.1736,90.3531
751.1379,90.2747
752.1021,90.2516
753.0663,90.284
754.0306,90.3624
754.9948,90.4681
755.9590,90.5792
756.9233,90.6788
757.8875,90.7612
758.8517,90.8315
759.8160,90.9001
760.7802,90.9756
761.7444,91.0594
762.7087,91.1459
763.6729,91.2275
764.6371,91.3007
765.6014,91.3713
766.5656,91.4534
767.5298,91.5637
768.4941,91.7133
769.4583,91.9012
770.4225,92.1143
771.3868,92.3319
772.3510,92.5343
773.3152,92.7083
774.2795,92.8479
775.2437,92.9521
776.2079,93.0219
777.1722,93.0583
778.1364,93.0632
779.1006,93.0387
780.0649,92.9857
781.0291,92.9023
781.9933,92.7859
782.9576,92.6379
783.9218,92.4678
784.8860,92.2931
785.8503,92.132
786.8145,91.9937
787.7787,91.8733
788.7430,91.7557
789.7072,91.626
790.6714,91.479
791.6357,91.3216
792.5999,91.1658
793.5641,91.0183
794.5284,90.8748
795.4926,90.7213
796.4568,90.5435
797.4211,90.3346
798.3853,90.0987
799.3495,89.8473
800.3138,89.5929
801.2780,89.3442
802.2422,89.1046
803.2065,88.8745
804.1707,88.654
805.1349,88.4454
806.0992,88.2529
807.0634,88.0818
808.0276,87.9363
808.9919,87.8181
809.9561,87.7256
810.9203,87.6555
811.8846,87.6056
812.8488,87.5774
813.8130,87.5769
814.7773,87.6112
815.7415,87.6832
816.7057,87.7857
817.6700,87.9014
818.6342,88.0078
819.5984,88.0858
820.5627,88.1282
821.5269,88.1412
822.4911,88.1399
823.4554,88.1387
824.4196,88.1447
825.3839,88.1545
826.3481,88.1595
827.3123,88.1513
828.2766,88.1275
829.2408,88.0911
830.2050,88.0475
831.1693,88
832.1335,87.9474
833.0977,87.8849
834.0620,87.8059
835.0262,87.7047
835.9904,87.577
836.9547,87.4211
837.9189,87.2368
838.8831,87.0257
839.8474,86.7905
840.8116,86.5345
841.7758,86.2612
842.7401,85.9746
843.7043,85.6802
844.6685,85.3843
845.6328,85.094
846.5970,84.8145
847.5612,84.548
848.5255,84.2934
849.4897,84.049
850.4539,83.8145
851.4182,83.5939
852.3824,83.3946
853.3466,83.2242
854.3109,83.0867
855.2751,82.9791
856.2393,82.8917
857.2036,82.8116
858.1678,82.7282
859.1320,82.6389
860.0963,82.5504
861.0605,82.4773
862.0247,82.4361
862.9890,82.4397
863.9532,82.4928
864.9174,82.5917
865.8817,82.7264
866.8459,82.8847
867.8101,83.0558
868.7744,83.2333
869.7386,83.4146
870.7028,83.5995
871.6671,83.7851
872.6313,83.9626
873.5955,84.1164
874.5598,84.2297
875.5240,84.2924
876.4882,84.3093
877.4525,84.3003
878.4167,84.2928
879.3809,84.3103
880.3452,84.3628
881.3094,84.4468
882.2736,84.5516
883.2379,84.6683
884.2021,84.7932
885.1663,84.926
886.1306,85.0645
887.0948,85.2034
888.0590,85.3385
889.0233,85.4725
889.9875,85.6177
890.9517,85.7908
891.9160,86.0034
892.8802,86.2547
893.8444,86.5312
894.8087,86.8138
895.7729,87.0873
896.7371,87.3459
897.7014,87.5917
898.6656,87.8303
899.6298,88.0654
900.5941,88.2967
901.5583,88.5212
902.5225,88.7354
903.4868,88.9367
904.4510,89.1224
905.4152,89.2891
906.3795,89.4321
907.3437,89.5453
908.3079,89.6232
909.2722,89.6625
910.2364,89.6639
911.2006,89.6323
912.1649,89.5763
913.1291,89.506
914.0933,89.4303
915.0576,89.3552
916.0218,89.2832
916.9860,89.2149
917.9503,89.1504
918.9145,89.0915
919.8787,89.0419
920.8430,89.0073
921.8072,88.9932
922.7714,89.0042
923.7357,89.0417
924.6999,89.1037
925.6641,89.1866
926.6284,89.2878
927.5926,89.4101
928.5568,89.564
929.5211,89.7676
930.4853,90.0434
931.4495,90.4123
932.4138,90.8884
933.3780,91.474
934.3422,92.1586
935.3065,92.9188
936.2707,93.7226
937.2349,94.5336
938.1992,95.3175
939.1634,96.0478
940.1276,96.7093
941.0919,97.2986
942.0561,97.8215
943.0203,98.2871
943.9846,98.7032
944.9488,99.0724
945.9130,99.3927
946.8773,99.6595
947.8415,99.8701
948.8057,100.027
949.7700,100.136
950.7342,100.207
951.6984,100.25
952.6627,100.27
953.6269,100.267
954.5911,100.241
955.5554,100.187
956.5196,100.106
957.4838,99.9961
958.4481,99.8585
959.4123,99.6914
960.3765,99.5031
961.3408,99.3252
962.3050,99.1179
963.2692,98.8889
964.2335,98.6502
965.1977,98.4146
966.1619,98.1932
967.1262,97.9937
968.0904,97.8197
969.0546,97.6718
970.0189,97.548
970.9831,97.4449
971.9473,97.3593
972.9116,97.2894
973.8758,97.2353
974.8400,97.1979
975.8043,97.1761
976.7685,97.1636
977.7327,97.1483
978.6970,97.1147
979.6612,97.0493
980.6254,96.9452
981.5897,96.8035
982.5539,96.6308
983.5181,96.4346
984.4824,96.2196
985.4466,95.9882
986.4108,95.7439
987.3751,95.4951
988.3393,95.2553
989.3035,95.0402
990.2678,94.8627
991.2320,94.7293
992.1962,94.6388
993.1605,94.5846
994.1247,94.5572
995.0889,94.5469
996.0532,94.5452
997.0174,94.5447
997.9816,94.5395
998.9459,94.5248
999.9101,94.4961
1000.8743,94.4475
1001.8386,94.371
1002.8028,94.255
1003.7670,94.0856
1004.7313,93.8492
1005.6955,93.5354
1006.6597,93.1395
1007.6240,92.6629
1008.5882,92.1109
1009.5524,91.4902
1010.5167,90.8075
1011.4809,90.0697
1012.4451,89.2854
1013.4094,88.4643
1014.3736,87.615
1015.3378,86.7421
1016.3021,85.8464
1017.2663,84.9282
1018.2305,83.9908
1019.1948,83.0398
1020.1590,82.0758
1021.1232,81.0852
1022.0875,80.0409
1023.0517,78.9154
1024.0160,77.7046
1024.9802,76.4444
1025.9445,75.2074
1026.9087,74.0753
1027.8729,73.1025
1028.8372,72.2905
1029.8014,71.5909
1030.7656,70.9341
1031.7299,70.2664
1032.6941,69.5748
1033.6583,68.8883
1034.6226,68.2599
1035.5868,67.7426
1036.5510,67.371
1037.5153,67.1533
1038.4795,67.0739
1039.4437,67.0996
1040.4080,67.1894
1041.3722,67.3052
1042.3364,67.4211
1043.3007,67.5283
1044.2649,67.633
1045.2291,67.7484
1046.1934,67.8863
1047.1576,68.0531
1048.1218,68.2518
1049.0861,68.4853
1050.0503,68.7573
1051.0145,69.0676
1051.9788,69.4072
1052.9430,69.7594
1053.9072,70.1096
1054.8715,70.4589
1055.8357,70.8312
1056.7999,71.2622
1057.7642,71.7731
1058.7284,72.3418
1059.6926,72.8928
1060.6569,73.3177
1061.6211,73.5243
1062.5853,73.4867
1063.5496,73.2683
1064.5138,72.999
1065.4780,72.8149
1066.4423,72.7929
1067.4065,72.9162
1068.3707,73.0881
1069.3350,73.1862
1070.2992,73.1218
1071.2634,72.8738
1072.2277,72.4838
1073.1919,72.0238
1074.1561,71.5598
1075.1204,71.132
1076.0846,70.7555
1077.0488,70.433
1078.0131,70.1654
1078.9773,69.9553
1079.9415,69.8037
1080.9058,69.7066
1081.8700,69.6542
1082.8342,69.6355
1083.7985,69.6436
1084.7627,69.6813
1085.7269,69.763
1086.6912,69.9132
1087.6554,70.1583
1088.6196,70.5157
1089.5839,70.9823
1090.5481,71.5309
1091.5123,72.1167
1092.4766,72.6932
1093.4408,73.2298
1094.4050,73.7216
1095.3693,74.1884
1096.3335,74.6623
1097.2977,75.1732
1098.2620,75.7377
1099.2262,76.3553
1100.1904,77.0129
1101.1547,77.6913
1102.1189,78.373
1103.0831,79.0459
1104.0474,79.7049
1105.0116,80.3501
1105.9758,80.9842
1106.9401,81.61
1107.9043,82.2306
1108.8685,82.8505
1109.8328,83.4774
1110.7970,84.122
1111.7612,84.7961
1112.7255,85.5077
1113.6897,86.2575
1114.6539,87.0382
1115.6182,87.8375
1116.5824,88.6434
1117.5466,89.4491
1118.5109,90.2535
1119.4751,91.0586
1120.4393,91.8653
1121.4036,92.6696
1122.3678,93.4628
1123.3320,94.2338
1124.2963,94.9729
1125.2605,95.6737
1126.2247,96.3327
1127.1890,96.9469
1128.1532,97.5125
1129.1174,98.0247
1130.0817,98.4789
1131.0459,98.8719
1132.0101,99.2019
1132.9744,99.4674
1133.9386,99.6658
1134.9028,99.7931
1135.8671,99.8452
1136.8313,99.819
1137.7955,99.7137
1138.7598,99.5309
1139.7240,99.2742
1140.6882,98.9365
1141.6525,98.4928
1142.6167,98.0117
1143.5809,97.5194
1144.5452,97.048
1145.5094,96.6306
1146.4736,96.2936
1147.4379,96.0511
1148.4021,95.9024
1149.3663,95.8339
1150.3306,95.8245
1151.2948,95.8509
1152.2590,95.8914
1153.2233,95.9264
1154.1875,95.938
1155.1517,95.9105
1156.1160,95.832
1157.0802,95.6968
1158.0444,95.506
1159.0087,95.266
1159.9729,94.9846
1160.9371,94.6678
1161.9014,94.3189
1162.8656,93.9403
1163.8298,93.5357
1164.7941,93.1111
1165.7583,92.6742
1166.7225,92.2323
1167.6868,91.7905
1168.6510,91.3509
1169.6152,90.9138
1170.5795,90.4782
1171.5437,90.0421
1172.5079,89.6036
1173.4722,89.161
1174.4364,88.7139
1175.4006,88.2643
1176.3649,87.8163
1177.3291,87.3748
1178.2933,86.9433
1179.2576,86.5222
1180.2218,86.1085
1181.1860,85.6975
1182.1503,85.2859
1183.1145,84.8735
1184.0787,84.4646
1185.0430,84.0663
1186.0072,83.6858
1186.9714,83.3275
1187.9357,82.9927
1188.8999,82.6793
1189.8641,82.3841
1190.8284,82.1041
1191.7926,81.8367
1192.7568,81.5801
1193.7211,81.3335
1194.6853,81.0974
1195.6495,80.874
1196.6138,80.6671
1197.5780,80.4799
1198.5422,80.3133
1199.5065,80.199
1200.4707,80.059
1201.4349,79.9254
1202.3992,79.7941
1203.3634,79.6645
1204.3276,79.5392
1205.2919,79.4224
1206.2561,79.3181
1207.2203,79.2282
1208.1846,79.1516
1209.1488,79.085
1210.1130,79.0237
1211.0773,78.9632
1212.0415,78.9
1213.0057,78.8321
1213.9700,78.7589
1214.9342,78.6814
1215.8984,78.6011
1216.8627,78.5199
1217.8269,78.4397
1218.7911,78.3605
1219.7554,78.2815
1220.7196,78.2009
1221.6838,78.1178
1222.6481,78.0327
1223.6123,77.9475
1224.5765,77.8649
1225.5408,77.7865
1226.5050,77.7115
1227.4692,77.6357
1228.4335,77.5516
1229.3977,77.4515
1230.3619,77.3326
1231.3262,77.2034
1232.2904,77.0863
1233.2546,77.0141
1234.2189,77.0187
1235.1831,77.1178
1236.1473,77.3082
1237.1116,77.5697
1238.0758,77.8797
1239.0400,78.2271
1240.0043,78.616
1240.9685,79.0543
1241.9327,79.5355
1242.8970,80.026
1243.8612,80.4712
1244.8254,80.8169
1245.7897,81.0341
1246.7539,81.1314
1247.7181,81.1479
1248.6824,81.1319
1249.6466,81.12
1250.6108,81.1266
1251.5751,81.1471
1252.5393,81.1686
1253.5035,81.1805
1254.4678,81.1788
1255.4320,81.1656
1256.3962,81.1467
1257.3605,81.1292
1258.3247,81.1207
1259.2889,81.1275
1260.2532,81.1529
1261.2174,81.1953
1262.1816,81.2482
1263.1459,81.3033
1264.1101,81.3524
1265.0743,81.3891
1266.0386,81.4088
1267.0028,81.4071
1267.9670,81.3805
1268.9313,81.3262
1269.8955,81.2448
1270.8597,81.1411
1271.8240,81.0249
1272.7882,80.9092
1273.7524,80.8074
1274.7167,80.7309
1275.6809,80.6871
1276.6451,80.679
1277.6094,80.7051
1278.5736,80.7608
1279.5378,80.839
1280.5021,80.9324
1281.4663,81.0355
1282.4305,81.1458
1283.3948,81.264
1284.3590,81.3935
1285.3232,81.539
1286.2875,81.705
1287.2517,81.8941
1288.2159,82.1054
1289.1802,82.3343
1290.1444,82.5729
1291.1086,82.8123
1292.0729,83.045
1293.0371,83.2661
1294.0013,83.4743
1294.9656,83.6707
1295.9298,83.8576
1296.8940,84.0371
1297.8583,84.2102
1298.8225,84.377
1299.7867,84.5369
1300.7510,84.6899
1301.7152,84.8368
1302.6794,84.9801
1303.6437,85.1237
1304.6079,85.2712
1305.5721,85.4236
1306.5364,85.578
1307.5006,85.7284
1308.4648,85.8691
1309.4291,85.9988
1310.3933,86.1216
1311.3575,86.2446
1312.3218,86.3734
1313.2860,86.5076
1314.2502,86.6417
1315.2145,86.7694
1316.1787,86.8889
1317.1429,87.004
1318.1072,87.1212
1319.0714,87.2439
1320.0356,87.3689
1320.9999,87.4883
1321.9641,87.5954
1322.9283,87.6887
1323.8926,87.7727
1324.8568,87.8534
1325.8210,87.935
1326.7853,88.0176
1327.7495,88.0986
1328.7137,88.1751
1329.6780,88.246
1330.6422,88.3111
1331.6064,88.3677
1332.5707,88.409
1333.5349,88.425
1334.4991,88.4077
1335.4634,88.3562
1336.4276,88.2817
1337.3918,88.2095
1338.3561,88.1718
1339.3203,88.1875
1340.2845,88.2437
1341.2488,88.3033
1342.2130,88.3315
1343.1772,88.313
1344.1415,88.25
1345.1057,88.1524
1346.0699,88.0323
1347.0342,87.9009
1347.9984,87.7665
1348.9626,87.634
1349.9269,87.5044
1350.8911,87.3767
1351.8553,87.2504
1352.8196,87.1269
1353.7838,87.0089
1354.7480,86.8986
1355.7123,86.7947
1356.6765,86.6925
1357.6407,86.5865
1358.6050,86.4741
1359.5692,86.3578
1360.5334,86.2483
1361.4977,86.162
1362.4619,86.1083
1363.4261,86.0744
1364.3904,86.0306
1365.3546,85.9529
1366.3188,85.8329
1367.2831,85.6734
1368.2473,85.4814
1369.2115,85.263
1370.1758,85.0211
1371.1400,84.755
1372.1042,84.4665
1373.0685,84.1691
1374.0327,83.8904
1374.9969,83.6595
1375.9612,83.4878
1376.9254,83.3693
1377.8896,83.3
1378.8539,83.2878
1379.8181,83.3469
1380.7823,83.4827
1381.7466,83.6852
1382.7108,83.9383
1383.6750,84.2376
1384.6393,84.5965
1385.6035,85.0295
1386.5677,85.5135
1387.5320,85.9601
1388.4962,86.2541
1389.4604,86.335
1390.4247,86.2273
1391.3889,86.0072
1392.3531,85.767
1393.3174,85.5997
1394.2816,85.5785
1395.2458,85.7162
1396.2101,85.9377
1397.1743,86.1177
1398.1385,86.1609
1399.1028,86.0469
1400.0670,85.815
1401.0313,85.5228
1401.9955,85.217
1402.9597,84.9281
1403.9240,84.6774
1404.8882,84.4822
1405.8524,84.3514
1406.8167,84.2805
1407.7809,84.2592
1408.7451,84.284
1409.7094,84.3587
1410.6736,84.4818
1411.6378,84.6352
1412.6021,84.7877
1413.5663,84.915
1414.5305,85.0154
1415.4948,85.1065
1416.4590,85.214
1417.4232,85.3583
1418.3875,85.532
1419.3517,85.6806
1420.3159,85.7391
1421.2802,85.693
1422.2444,85.5787
1423.2086,85.4397
1424.1729,85.2997
1425.1371,85.16
1426.1013,85.0089
1427.0656,84.8315
1428.0298,84.6167
1428.9940,84.3647
1429.9583,84.0913
1430.9225,83.8233
1431.8867,83.5856
1432.8510,83.3907
1433.8152,83.2354
1434.7794,83.1064
1435.7437,82.991
1436.7079,82.8788
1437.6721,82.7494
1438.6364,82.5827
1439.6006,82.3846
1440.5648,82.1822
1441.5291,81.9985
1442.4933,81.8386
1443.4575,81.6929
1444.4218,81.5456
1445.3860,81.3845
1446.3502,81.2057
1447.3145,81.012
1448.2787,80.8066
1449.2429,80.5905
1450.2072,80.3673
1451.1714,80.1509
1452.1356,79.9628
1453.0999,79.8181
1454.0641,79.7183
1455.0283,79.6722
1455.9926,79.7552
1456.9568,80.0871
1457.9210,80.5774
1458.8853,80.9419
1459.8495,81.0906
1460.8137,81.1366
1461.7780,81.2146
1462.7422,81.4186
1463.7064,81.8017
1464.6707,82.3528
1465.6349,82.9712
1466.5991,83.5321
1467.5634,83.995
1468.5276,84.4094
1469.4918,84.8517
1470.4561,85.3874
1471.4203,86.0705
1472.3845,86.9233
1473.3488,87.8615
1474.3130,88.6985
1475.2772,89.3139
1476.2415,89.7305
1477.2057,90.0305
1478.1699,90.2845
1479.1342,90.539
1480.0984,90.8232
1481.0626,91.1486
1482.0269,91.5042
1482.9911,91.8594
1483.9553,92.1802
1484.9196,92.4444
1485.8838,92.6479
1486.8480,92.8095
1487.8123,92.9826
1488.7765,93.2348
1489.7407,93.5587
1490.7050,93.8453
1491.6692,94.0112
1492.6334,94.066
1493.5977,94.0566
1494.5619,94.0104
1495.5261,93.9302
1496.4904,93.8198
1497.4546,93.6992
1498.4188,93.5745
1499.3831,93.4275
1500.3473,93.2613
1501.3115,93.1164
1502.2758,93.036
1503.2400,93.0268
1504.2042,93.0362
1505.1685,92.9671
1506.1327,92.7965
1507.0969,92.7087
1508.0612,92.8036
1509.0254,92.8857
1509.9896,92.8521
1510.9539,92.7592
1511.9181,92.6755
1512.8823,92.6356
1513.8466,92.6576
1514.8108,92.7601
1515.7750,92.9592
1516.7393,93.2508
1517.7035,93.6111
1518.6677,94.0224
1519.6320,94.493
1520.5962,95.034
1521.5604,95.6113
1522.5247,96.1474
1523.4889,96.5963
1524.4531,96.9856
1525.4174,97.3702
1526.3816,97.7655
1527.3458,98.1344
1528.3101,98.433
1529.2743,98.655
1530.2385,98.8318
1531.2028,99.0089
1532.1670,99.2232
1533.1312,99.4766
1534.0955,99.7265
1535.0597,99.9287
1536.0239,100.083
1536.9882,100.203
1537.9524,100.256
1538.9166,100.163
1539.8809,99.9309
1540.8451,99.801
1541.8093,99.9322
1542.7736,100.172
1543.7378,100.344
1544.7020,100.434
1545.6663,100.457
1546.6305,100.425
1547.5947,100.349
1548.5590,100.25
1549.5232,100.141
1550.4874,100.024
1551.4517,99.8911
1552.4159,99.7419
1553.3801,99.5983
1554.3444,99.4941
1555.3086,99.4438
1556.2728,99.4148
1557.2371,99.3586
1558.2013,99.3152
1559.1655,99.3134
1560.1298,99.1585
1561.0940,98.7617
1562.0582,98.2559
1563.0225,97.781
1563.9867,97.3987
1564.9509,97.1083
1565.9152,96.8723
1566.8794,96.6359
1567.8436,96.3518
1568.8079,96.0072
1569.7721,95.6293
1570.7363,95.2583
1571.7006,94.9216
1572.6648,94.6197
1573.6290,94.3162
1574.5933,93.9484
1575.5575,93.4856
1576.5217,92.9835
1577.4860,92.5194
1578.4502,92.1006
1579.4144,91.6979
1580.3787,91.2932
1581.3429,90.8779
1582.3071,90.4465
1583.2714,90.0015
1584.2356,89.5528
1585.1998,89.1072
1586.1641,88.6639
1587.1283,88.2187
1588.0925,87.7711
1589.0568,87.3253
1590.0210,86.8871
1590.9852,86.4604
1591.9495,86.0503
1592.9137,85.667
1593.8779,85.3271
1594.8422,85.0453
1595.8064,84.8241
1596.7706,84.6508
1597.7349,84.5052
1598.6991,84.3709
1599.6633,84.241
1600.6276,84.1187
1601.5918,84.0122
1602.5560,83.9288
1603.5203,83.87
1604.4845,83.8335
1605.4487,83.8196
1606.4130,83.8369
1607.3772,83.8995
1608.3414,84.0142
1609.3057,84.1659
1610.2699,84.3209
1611.2341,84.4529
1612.1984,84.5629
1613.1626,84.6742
1614.1268,84.8176
1615.0911,85.025
1616.0553,85.3079
1617.0195,85.6078
1617.9838,85.8217
1618.9480,85.9173
1619.9122,85.9567
1620.8765,86.0241
1621.8407,86.1721
1622.8049,86.4057
1623.7692,86.6854
1624.7334,86.9566
1625.6976,87.1963
1626.6619,87.4234
1627.6261,87.6628
1628.5903,87.9113
1629.5546,88.1446
1630.5188,88.3514
1631.4830,88.5459
1632.4473,88.7485
1633.4115,88.9651
1634.3757,89.2001
1635.3400,89.4827
1636.3042,89.8073
1637.2684,90.0728
1638.2327,90.2102
1639.1969,90.2588
1640.1611,90.2887
1641.1254,90.3424
1642.0896,90.4289
1643.0538,90.5276
1644.0181,90.5935
1644.9823,90.5811
1645.9465,90.5022
1646.9108,90.4336
1647.8750,90.4289
1648.8392,90.495
1649.8035,90.632
1650.7677,90.8124
1651.7319,90.9546
1652.6962,90.9898
1653.6604,90.9224
1654.6246,90.711
1655.5889,90.3364
1656.5531,89.9101
1657.5173,89.5481
1658.4816,89.2903
1659.4458,89.1083
1660.4100,88.9419
1661.3743,88.7427
1662.3385,88.5045
1663.3027,88.2498
1664.2670,88.0009
1665.2312,87.768
1666.1954,87.5418
1667.1597,87.2898
1668.1239,86.9793
1669.0881,86.6241
1670.0524,86.2928
1671.0166,86.0389
1671.9808,85.8576
1672.9451,85.7153
1673.9093,85.5744
1674.8735,85.394
1675.8378,85.14
1676.8020,84.8071
1677.7662,84.4331
1678.7305,84.0818
1679.6947,83.8059
1680.6589,83.6155
1681.6232,83.4712
1682.5874,83.3169
1683.5516,83.1375
1684.5159,82.9392
1685.4801,82.6811
1686.4443,82.3379
1687.4086,81.948
1688.3728,81.5662
1689.3370,81.2289
1690.3013,80.9503
1691.2655,80.7255
1692.2297,80.5298
1693.1940,80.3206
1694.1582,80.051
1695.1224,79.7017
1696.0867,79.3165
1697.0509,79.001
1698.0151,78.8465
1698.9794,78.8284
1699.9436,78.8087
1700.9078,78.6669
1701.8721,78.4007
1702.8363,78.0993
1703.8005,77.8652
1704.7648,77.7627
1705.7290,77.7997
1706.6932,77.9305
1707.6575,78.0864
1708.6217,78.2229
1709.5859,78.3395
1710.5502,78.4601
1711.5144,78.6052
1712.4786,78.779
1713.4429,78.9801
1714.4071,79.2313
1715.3713,79.6139
1716.3356,80.2318
1717.2998,81.0315
1718.2640,81.7492
1719.2283,82.2026
1720.1925,82.4446
1721.1567,82.6234
1722.1210,82.8503
1723.0852,83.1628
1724.0494,83.5381
1725.0137,83.9241
1725.9779,84.2765
1726.9421,84.5802
1727.9064,84.8495
1728.8706,85.1127
1729.8348,85.3998
1730.7991,85.7398
1731.7633,86.1649
1732.7275,86.6924
1733.6918,87.2594
1734.6560,87.7124
1735.6202,87.9587
1736.5845,88.0602
1737.5487,88.1454
1738.5129,88.307
1739.4772,88.5672
1740.4414,88.8866
1741.4056,89.1985
1742.3699,89.4565
1743.3341,89.6607
1744.2983,89.8428
1745.2626,90.0354
1746.2268,90.2589
1747.1910,90.5314
1748.1553,90.8799
1749.1195,91.3195
1750.0837,91.8031
1751.0480,92.2255
1752.0122,92.5136
1752.9764,92.6811
1753.9407,92.7946
1754.9049,92.9169
1755.8691,93.0785
1756.8334,93.2776
1757.7976,93.4969
1758.7618,93.725
1759.7261,93.9658
1760.6903,94.2278
1761.6545,94.5048
1762.6188,94.7714
1763.5830,95.0028
1764.5472,95.1972
1765.5115,95.3737
1766.4757,95.5518
1767.4399,95.7354
1768.4042,95.9127
1769.3684,96.0738
1770.3326,96.2326
1771.2969,96.4298
1772.2611,96.6886
1773.2253,96.9667
1774.1896,97.1933
1775.1538,97.346
1776.1180,97.4595
1777.0823,97.5819
1778.0465,97.7398
1779.0107,97.9322
1779.9750,98.1406
1780.9392,98.3455
1781.9034,98.5359
1782.8677,98.709
1783.8319,98.8607
1784.7961,98.9816
1785.7604,99.0654
1786.7246,99.1197
1787.6888,99.1647
1788.6531,99.2184
1789.6173,99.2825
1790.5815,99.3461
1791.5458,99.4029
1792.5100,99.4513
1793.4742,99.4788
1794.4385,99.4748
1795.4027,99.4549
1796.3669,99.4491
1797.3312,99.4755
1798.2954,99.5322
1799.2596,99.6057
1800.2239,99.6829
1801.1881,99.7534
1802.1523,99.8088
1803.1166,99.8452
1804.0808,99.8651
1805.0450,99.8743
1806.0093,99.8922
1806.9735,99.9163
1807.9377,99.9381
1808.9020,99.9636
1809.8662,100.002
1810.8304,100.057
1811.7947,100.125
1812.7589,100.195
1813.7231,100.258
1814.6874,100.314
1815.6516,100.364
1816.6158,100.405
1817.5801,100.437
1818.5443,100.46
1819.5085,100.479
1820.4728,100.502
1821.4370,100.534
1822.4012,100.574
1823.3655,100.615
1824.3297,100.646
1825.2939,100.658
1826.2582,100.651
1827.2224,100.634
1828.1866,100.626
1829.1509,100.643
1830.1151,100.688
1831.0793,100.736
1832.0436,100.762
1833.0078,100.762
1833.9720,100.751
1834.9363,100.744
1835.9005,100.745
1836.8647,100.751
1837.8290,100.76
1838.7932,100.776
1839.7574,100.808
1840.7217,100.86
1841.6859,100.92
1842.6501,100.965
1843.6144,100.983
1844.5786,100.976
1845.5428,100.953
1846.5071,100.922
1847.4713,100.897
1848.4355,100.892
1849.3998,100.91
1850.3640,100.942
1851.3282,100.97
1852.2925,100.986
1853.2567,100.99
1854.2209,100.985
1855.1852,100.979
1856.1494,100.973
1857.1136,100.968
1858.0779,100.966
1859.0421,100.968
1860.0063,100.973
1860.9706,100.978
1861.9348,100.973
1862.8990,100.956
1863.8633,100.926
1864.8275,100.888
1865.7917,100.85
1866.7560,100.824
1867.7202,100.832
1868.6844,100.887
1869.6487,100.966
1870.6129,101.027
1871.5771,101.052
1872.5414,101.051
1873.5056,101.044
1874.4698,101.042
1875.4341,101.046
1876.3983,101.05
1877.3625,101.051
1878.3268,101.05
1879.2910,101.047
1880.2552,101.044
1881.2195,101.039
1882.1837,101.03
1883.1479,101.017
1884.1122,101.001
1885.0764,100.989
1886.0406,100.983
1887.0049,100.984
1887.9691,100.992
1888.9333,101
1889.8976,101.002
1890.8618,100.993
1891.8260,100.972
1892.7903,100.946
1893.7545,100.926
1894.7188,100.92
1895.6830,100.929
1896.6472,100.947
1897.6115,100.966
1898.5757,100.978
1899.5399,100.98
1900.5042,100.974
1901.4684,100.963
1902.4326,100.95
1903.3969,100.934
1904.3611,100.914
1905.3253,100.89
1906.2896,100.864
1907.2538,100.841
1908.2180,100.826
1909.1823,100.825
1910.1465,100.833
1911.1107,100.845
1912.0750,100.854
1913.0392,100.861
1914.0034,100.872
1914.9677,100.888
1915.9319,100.905
1916.8961,100.915
1917.8604,100.908
1918.8246,100.88
1919.7888,100.836
1920.7531,100.79
1921.7173,100.758
1922.6815,100.752
1923.6458,100.77
1924.6100,100.799
1925.5742,100.825
1926.5385,100.84
1927.5027,100.843
1928.4669,100.841
1929.4312,100.835
1930.3954,100.83
1931.3596,100.825
1932.3239,100.824
1933.2881,100.827
1934.2523,100.836
1935.2166,100.847
1936.1808,100.856
1937.1450,100.859
1938.1093,100.855
1939.0735,100.845
1940.0377,100.832
1941.0020,100.818
1941.9662,100.81
1942.9304,100.811
1943.8947,100.818
1944.8589,100.831
1945.8231,100.845
1946.7874,100.864
1947.7516,100.885
1948.7158,100.905
1949.6801,100.921
1950.6443,100.93
1951.6085,100.932
1952.5728,100.931
1953.5370,100.933
1954.5012,100.939
1955.4655,100.949
1956.4297,100.96
1957.3939,100.97
1958.3582,100.979
1959.3224,100.985
1960.2866,100.99
1961.2509,100.991
1962.2151,100.988
1963.1793,100.979
1964.1436,100.968
1965.1078,100.958
1966.0720,100.958
1967.0363,100.969
1968.0005,100.991
1968.9647,101.017
1969.9290,101.04
1970.8932,101.054
1971.8574,101.061
1972.8217,101.063
1973.7859,101.062
1974.7501,101.061
1975.7144,101.06
1976.6786,101.059
1977.6428,101.059
1978.6071,101.059
1979.5713,101.06
1980.5355,101.06
1981.4998,101.06
1982.4640,101.058
1983.4282,101.054
1984.3925,101.047
1985.3567,101.038
1986.3209,101.028
1987.2852,101.018
1988.2494,101.009
1989.2136,101.002
1990.1779,100.999
1991.1421,101
1992.1063,101.006
1993.0706,101.015
1994.0348,101.022
1994.9990,101.025
1995.9633,101.025
1996.9275,101.022
1997.8917,101.02
1998.8560,101.019
1999.8202,101.02
2000.7844,101.021
2001.7487,101.021
2002.7129,101.019
2003.6771,101.012
2004.6414,101.001
2005.6056,100.989
2006.5698,100.978
2007.5341,100.971
2008.4983,100.968
2009.4625,100.968
2010.4268,100.968
2011.3910,100.966
2012.3552,100.959
2013.3195,100.946
2014.2837,100.931
2015.2479,100.916
2016.2122,100.907
2017.1764,100.905
2018.1406,100.911
2019.1049,100.919
2020.0691,100.926
2021.0333,100.93
2021.9976,100.93
2022.9618,100.929
2023.9260,100.929
2024.8903,100.929
2025.8545,100.93
2026.8187,100.93
2027.7830,100.929
2028.7472,100.925
2029.7114,100.919
2030.6757,100.913
2031.6399,100.908
2032.6041,100.905
2033.5684,100.905
2034.5326,100.909
2035.4968,100.914
2036.4611,100.918
2037.4253,100.918
2038.3895,100.915
2039.3538,100.909
2040.3180,100.903
2041.2822,100.901
2042.2465,100.904
2043.2107,100.911
2044.1749,100.919
2045.1392,100.926
2046.1034,100.93
2047.0676,100.932
2048.0320,100.931
2048.9961,100.928
2049.9604,100.924
2050.9246,100.92
2051.8889,100.918
2052.8530,100.916
2053.8174,100.915
2054.7815,100.913
2055.7458,100.912
2056.7100,100.911
2057.6743,100.91
2058.6384,100.908
2059.6028,100.905
2060.5669,100.898
2061.5313,100.888
2062.4954,100.878
2063.4597,100.872
2064.4238,100.872
2065.3882,100.879
2066.3523,100.89
2067.3167,100.902
2068.2808,100.91
2069.2451,100.915
2070.2092,100.916
2071.1736,100.917
2072.1377,100.918
2073.1021,100.919
2074.0662,100.919
2075.0305,100.918
2075.9946,100.915
2076.9590,100.911
2077.9231,100.907
2078.8875,100.903
2079.8516,100.901
2080.8159,100.899
2081.7800,100.898
2082.7444,100.897
2083.7085,100.897
2084.6729,100.898
2085.6370,100.899
2086.6013,100.902
2087.5654,100.905
2088.5298,100.906
2089.4939,100.905
2090.4583,100.901
2091.4224,100.895
2092.3867,100.889
2093.3508,100.885
2094.3152,100.883
2095.2793,100.883
2096.2437,100.886
2097.2078,100.889
2098.1721,100.892
2099.1362,100.893
2100.1006,100.891
2101.0647,100.889
2102.0291,100.887
2102.9932,100.885
2103.9575,100.885
2104.9216,100.884
2105.8860,100.883
2106.8501,100.881
2107.8145,100.876
2108.7786,100.871
2109.7429,100.865
2110.7070,100.859
2111.6714,100.853
2112.6355,100.849
2113.5999,100.847
2114.5640,100.848
2115.5283,100.853
2116.4924,100.859
2117.4568,100.865
2118.4209,100.867
2119.3853,100.866
2120.3494,100.862
2121.3137,100.858
2122.2778,100.855
2123.2422,100.853
2124.2063,100.851
2125.1707,100.85
2126.1348,100.848
2127.0991,100.848
2128.0632,100.85
2129.0276,100.855
2129.9917,100.862
2130.9561,100.868
2131.9202,100.869
2132.8845,100.865
2133.8486,100.858
2134.8130,100.85
2135.7771,100.847
2136.7415,100.849
2137.7056,100.858
2138.6699,100.868
2139.6340,100.877
2140.5984,100.882
2141.5625,100.882
2142.5269,100.88
2143.4910,100.879
2144.4553,100.881
2145.4194,100.885
2146.3838,100.89
2147.3479,100.895
2148.3123,100.899
2149.2764,100.899
2150.2407,100.898
2151.2048,100.895
2152.1692,100.891
2153.1333,100.888
2154.0977,100.886
2155.0618,100.886
2156.0261,100.887
2156.9902,100.89
2157.9546,100.893
2158.9187,100.898
2159.8831,100.902
2160.8472,100.906
2161.8115,100.91
2162.7756,100.913
2163.7400,100.913
2164.7041,100.911
2165.6685,100.907
2166.6326,100.901
2167.5969,100.893
2168.5610,100.886
2169.5254,100.88
2170.4895,100.876
2171.4539,100.874
2172.4180,100.874
2173.3823,100.875
2174.3464,100.875
2175.3108,100.874
2176.2749,100.871
2177.2393,100.867
2178.2034,100.862
2179.1677,100.858
2180.1318,100.854
2181.0962,100.85
2182.0603,100.845
2183.0247,100.839
2183.9888,100.833
2184.9531,100.829
2185.9172,100.826
2186.8816,100.827
2187.8457,100.831
2188.8101,100.834
2189.7742,100.837
2190.7385,100.838
2191.7026,100.838
2192.6670,100.838
2193.6311,100.839
2194.5955,100.841
2195.5596,100.843
2196.5239,100.844
2197.4880,100.841
2198.4524,100.835
2199.4165,100.826
2200.3809,100.817
2201.3450,100.809
2202.3093,100.804
2203.2734,100.801
2204.2378,100.8
2205.2019,100.799
2206.1663,100.798
2207.1304,100.798
2208.0947,100.797
2209.0588,100.796
2210.0232,100.795
2210.9873,100.792
2211.9517,100.785
2212.9158,100.776
2213.8801,100.765
2214.8442,100.754
2215.8086,100.745
2216.7727,100.738
2217.7371,100.733
2218.7012,100.728
2219.6655,100.724
2220.6296,100.72
2221.5940,100.718
2222.5581,100.717
2223.5225,100.717
2224.4866,100.716
2225.4509,100.714
2226.4150,100.708
2227.3794,100.699
2228.3435,100.688
2229.3079,100.675
2230.2720,100.662
2231.2363,100.649
2232.2004,100.638
2233.1648,100.628
2234.1289,100.622
2235.0933,100.618
2236.0574,100.616
2237.0217,100.614
2237.9858,100.611
2238.9502,100.604
2239.9143,100.594
2240.8787,100.58
2241.8428,100.565
2242.8071,100.55
2243.7712,100.537
2244.7356,100.525
2245.6997,100.516
2246.6641,100.508
2247.6282,100.499
2248.5925,100.49
2249.5566,100.48
2250.5210,100.468
2251.4851,100.454
2252.4495,100.437
2253.4136,100.419
2254.3779,100.4
2255.3420,100.38
2256.3064,100.361
2257.2705,100.346
2258.2349,100.333
2259.1990,100.321
2260.1633,100.311
2261.1274,100.299
2262.0918,100.285
2263.0559,100.27
2264.0203,100.256
2264.9844,100.245
2265.9487,100.239
2266.9128,100.235
2267.8772,100.23
2268.8413,100.222
2269.8057,100.209
2270.7698,100.194
2271.7341,100.179
2272.6982,100.169
2273.6626,100.166
2274.6267,100.169
2275.5911,100.176
2276.5552,100.184
2277.5195,100.193
2278.4836,100.201
2279.4480,100.207
2280.4121,100.21
2281.3765,100.209
2282.3406,100.204
2283.3049,100.193
2284.2690,100.177
2285.2334,100.156
2286.1975,100.13
2287.1619,100.101
2288.1260,100.069
2289.0903,100.034
2290.0544,99.998
2291.0188,99.9626
2291.9829,99.9306
2292.9473,99.905
2293.9114,99.8872
2294.8757,99.8769
2295.8398,99.8721
2296.8042,99.8703
2297.7683,99.8708
2298.7327,99.8753
2299.6968,99.8876
2300.6611,99.9108
2301.6252,99.9446
2302.5896,99.9846
2303.5537,100.023
2304.5181,100.052
2305.4822,100.066
2306.4465,100.068
2307.4106,100.064
2308.3750,100.067
2309.3391,100.086
2310.3035,100.127
2311.2676,100.186
2312.2319,100.255
2313.1960,100.322
2314.1604,100.38
2315.1245,100.429
2316.0889,100.475
2317.0530,100.524
2318.0173,100.576
2318.9814,100.625
2319.9458,100.653
2320.9099,100.638
2321.8743,100.561
2322.8384,100.419
2323.8027,100.234
2324.7668,100.045
2325.7312,99.8961
2326.6953,99.8185
2327.6597,99.8168
2328.6238,99.8664
2329.5881,99.922
2330.5522,99.937
2331.5166,99.8855
2332.4807,99.7732
2333.4451,99.6309
2334.4092,99.4949
2335.3735,99.3892
2336.3376,99.3159
2337.3020,99.2587
2338.2661,99.194
2339.2305,99.1063
2340.1946,99.0046
2341.1589,98.9348
2342.1230,98.972
2343.0874,99.1635
2344.0515,99.4391
2345.0159,99.6244
2345.9800,99.6046
2346.9443,99.4249
2347.9084,99.2227
2348.8728,99.1164
2349.8369,99.1455
2350.8013,99.2748
2351.7654,99.3975
2352.7297,99.4109
2353.6938,99.2958
2354.6582,99.1154
2355.6223,98.9362
2356.5867,98.7713
2357.5508,98.6116
2358.5151,98.4757
2359.4792,98.4018
2360.4436,98.4045
2361.4077,98.4635
2362.3721,98.5555
2363.3362,98.6812
2364.3005,98.8564
2365.2646,99.0878
2366.2290,99.3622
2367.1931,99.6556
2368.1575,99.9453
2369.1216,100.215
2370.0859,100.453
2371.0500,100.652
2372.0144,100.804
2372.9785,100.905
2373.9429,100.952
2374.9070,100.943
2375.8713,100.881
2376.8354,100.775
2377.7998,100.64
2378.7639,100.491
2379.7283,100.346
2380.6924,100.218
2381.6567,100.116
2382.6208,100.047
2383.5852,100.009
2384.5493,99.9964
2385.5137,100.003
2386.4778,100.019
2387.4421,100.035
2388.4063,100.048
2389.3706,100.054
2390.3347,100.054
2391.2991,100.052
2392.2632,100.051
2393.2275,100.053
2394.1917,100.06
2395.1560,100.069
2396.1201,100.08
2397.0845,100.09
2398.0486,100.099
2399.0129,100.105
2399.9771,100.108
2400.9414,100.106
2401.9055,100.102
2402.8699,100.095
2403.8340,100.091
2404.7983,100.09
2405.7625,100.095
2406.7268,100.105
2407.6909,100.115
2408.6553,100.123
2409.6194,100.128
2410.5837,100.13
2411.5479,100.131
2412.5122,100.133
2413.4763,100.137
2414.4407,100.143
2415.4048,100.15
2416.3691,100.158
2417.3333,100.166
2418.2976,100.176
2419.2617,100.186
2420.2261,100.194
2421.1902,100.2
2422.1545,100.201
2423.1187,100.199
2424.0830,100.197
2425.0471,100.197
2426.0115,100.201
2426.9756,100.208
2427.9399,100.218
2428.9041,100.227
2429.8684,100.236
2430.8325,100.243
2431.7969,100.249
2432.7610,100.254
2433.7253,100.256
2434.6895,100.256
2435.6538,100.255
2436.6179,100.254
2437.5823,100.254
2438.5464,100.258
2439.5107,100.264
2440.4749,100.271
2441.4392,100.28
2442.4033,100.288
2443.3677,100.296
2444.3318,100.303
2445.2961,100.308
2446.2603,100.309
2447.2246,100.308
2448.1887,100.305
2449.1531,100.302
2450.1172,100.3
2451.0815,100.3
2452.0457,100.302
2453.0100,100.305
2453.9741,100.309
2454.9385,100.314
2455.9026,100.318
2456.8669,100.323
2457.8311,100.328
2458.7954,100.33
2459.7595,100.33
2460.7239,100.328
2461.6880,100.324
2462.6523,100.321
2463.6165,100.32
2464.5808,100.323
2465.5449,100.329
2466.5093,100.336
2467.4734,100.342
2468.4377,100.344
2469.4019,100.342
2470.3662,100.338
2471.3303,100.334
2472.2947,100.333
2473.2588,100.336
2474.2231,100.344
2475.1873,100.353
2476.1516,100.361
2477.1157,100.366
2478.0801,100.369
2479.0442,100.37
2480.0085,100.372
2480.9727,100.376
2481.9370,100.382
2482.9011,100.387
2483.8655,100.389
2484.8296,100.389
2485.7939,100.388
2486.7581,100.386
2487.7224,100.384
2488.6865,100.384
2489.6509,100.384
2490.6150,100.385
2491.5793,100.386
2492.5435,100.387
2493.5078,100.388
2494.4719,100.39
2495.4363,100.392
2496.4004,100.397
2497.3647,100.403
2498.3289,100.41
2499.2932,100.415
2500.2573,100.418
2501.2217,100.418
2502.1858,100.415
2503.1501,100.413
2504.1143,100.414
2505.0786,100.417
2506.0427,100.422
2507.0071,100.425
2507.9712,100.423
2508.9355,100.416
2509.8997,100.406
2510.8640,100.396
2511.8281,100.389
2512.7925,100.387
2513.7566,100.388
2514.7209,100.395
2515.6851,100.404
2516.6494,100.415
2517.6135,100.426
2518.5779,100.434
2519.5420,100.437
2520.5063,100.436
2521.4705,100.431
2522.4348,100.426
2523.3989,100.423
2524.3633,100.421
2525.3274,100.42
2526.2917,100.417
2527.2559,100.413
2528.2202,100.407
2529.1843,100.402
2530.1487,100.399
2531.1128,100.398
2532.0771,100.399
2533.0413,100.402
2534.0056,100.403
2534.9697,100.404
2535.9341,100.404
2536.8982,100.403
2537.8625,100.403
2538.8267,100.404
2539.7910,100.406
2540.7551,100.409
2541.7195,100.414
2542.6836,100.42
2543.6479,100.426
2544.6121,100.432
2545.5764,100.439
2546.5405,100.443
2547.5049,100.445
2548.4690,100.443
2549.4333,100.438
2550.3975,100.431
2551.3618,100.425
2552.3259,100.424
2553.2903,100.428
2554.2544,100.437
2555.2188,100.448
2556.1829,100.46
2557.1472,100.471
2558.1113,100.479
2559.0757,100.486
2560.0398,100.491
2561.0042,100.494
2561.9683,100.496
2562.9326,100.494
2563.8967,100.491
2564.8611,100.488
2565.8252,100.487
2566.7896,100.49
2567.7537,100.497
2568.7180,100.507
2569.6821,100.516
2570.6465,100.524
2571.6106,100.528
2572.5750,100.529
2573.5391,100.527
2574.5034,100.527
2575.4675,100.527
2576.4319,100.529
2577.3960,100.533
2578.3604,100.537
2579.3245,100.541
2580.2888,100.546
2581.2529,100.551
2582.2173,100.557
2583.1814,100.561
2584.1458,100.564
2585.1099,100.564
2586.0742,100.561
2587.0383,100.558
2588.0027,100.555
2588.9668,100.555
2589.9312,100.558
2590.8953,100.563
2591.8596,100.569
2592.8237,100.572
2593.7881,100.573
2594.7522,100.573
2595.7166,100.573
2596.6807,100.574
2597.6450,100.578
2598.6091,100.583
2599.5735,100.588
2600.5376,100.593
2601.5020,100.596
2602.4661,100.599
2603.4304,100.601
2604.3945,100.604
2605.3589,100.608
2606.3230,100.614
2607.2874,100.62
2608.2515,100.626
2609.2158,100.632
2610.1799,100.634
2611.1443,100.634
2612.1084,100.632
2613.0728,100.629
2614.0369,100.628
2615.0012,100.629
2615.9653,100.631
2616.9297,100.633
2617.8938,100.634
2618.8582,100.634
2619.8223,100.634
2620.7866,100.636
2621.7507,100.639
2622.7151,100.642
2623.6792,100.644
2624.6436,100.645
2625.6077,100.646
2626.5720,100.649
2627.5361,100.653
2628.5005,100.658
2629.4646,100.663
2630.4290,100.667
2631.3931,100.671
2632.3574,100.673
2633.3215,100.676
2634.2859,100.678
2635.2500,100.68
2636.2144,100.682
2637.1785,100.686
2638.1428,100.692
2639.1069,100.701
2640.0713,100.712
2641.0354,100.723
2641.9998,100.731
2642.9639,100.735
2643.9282,100.736
2644.8923,100.734
2645.8567,100.733
2646.8208,100.735
2647.7852,100.739
2648.7493,100.742
2649.7136,100.745
2650.6777,100.746
2651.6421,100.747
2652.6062,100.749
2653.5706,100.755
2654.5347,100.764
2655.4990,100.776
2656.4631,100.787
2657.4275,100.796
2658.3916,100.8
2659.3560,100.802
2660.3201,100.803
2661.2844,100.804
2662.2485,100.808
2663.2129,100.814
2664.1770,100.823
2665.1414,100.834
2666.1055,100.845
2667.0698,100.857
2668.0339,100.868
2668.9983,100.879
2669.9624,100.891
2670.9268,100.904
2671.8909,100.919
2672.8552,100.933
2673.8193,100.947
2674.7837,100.958
2675.7478,100.967
2676.7122,100.973
2677.6763,100.977
2678.6406,100.979
2679.6047,100.98
2680.5691,100.98
2681.5332,100.983
2682.4976,100.988
2683.4617,100.996
2684.4260,101.005
2685.3901,101.013
2686.3545,101.017
2687.3186,101.018
2688.2830,101.018
2689.2471,101.02
2690.2114,101.025
2691.1755,101.033
2692.1399,101.044
2693.1040,101.053
2694.0684,101.061
2695.0325,101.066
2695.9968,101.067
2696.9609,101.066
2697.9253,101.063
2698.8894,101.058
2699.8538,101.053
2700.8179,101.048
2701.7822,101.045
2702.7463,101.044
2703.7107,101.045
2704.6748,101.044
2705.6392,101.041
2706.6033,101.033
2707.5676,101.022
2708.5317,101.01
2709.4961,101
2710.4602,100.993
2711.4246,100.99
2712.3887,100.988
2713.3530,100.983
2714.3171,100.974
2715.2815,100.96
2716.2456,100.943
2717.2100,100.926
2718.1741,100.911
2719.1384,100.899
2720.1025,100.892
2721.0669,100.887
2722.0310,100.88
2722.9954,100.87
2723.9595,100.855
2724.9238,100.834
2725.8879,100.812
2726.8523,100.791
2727.8164,100.776
2728.7808,100.766
2729.7449,100.761
2730.7092,100.76
2731.6733,100.761
2732.6377,100.763
2733.6018,100.766
2734.5662,100.768
2735.5303,100.768
2736.4946,100.766
2737.4587,100.763
2738.4231,100.759
2739.3872,100.759
2740.3516,100.765
2741.3157,100.776
2742.2800,100.793
2743.2441,100.816
2744.2085,100.841
2745.1726,100.867
2746.1370,100.891
2747.1011,100.907
2748.0654,100.914
2749.0295,100.913
2749.9939,100.907
2750.9580,100.901
2751.9224,100.899
2752.8865,100.903
2753.8508,100.909
2754.8149,100.914
2755.7793,100.913
2756.7434,100.905
2757.7078,100.893
2758.6719,100.88
2759.6362,100.869
2760.6003,100.861
2761.5647,100.856
2762.5288,100.853
2763.4932,100.849
2764.4573,100.844
2765.4216,100.837
2766.3857,100.829
2767.3501,100.821
2768.3142,100.813
2769.2786,100.806
2770.2427,100.798
2771.2070,100.784
2772.1711,100.763
2773.1355,100.734
2774.0996,100.699
2775.0640,100.662
2776.0281,100.628
2776.9924,100.599
2777.9565,100.573
2778.9209,100.545
2779.8850,100.511
2780.8494,100.469
2781.8135,100.423
2782.7778,100.378
2783.7419,100.339
2784.7063,100.31
2785.6704,100.289
2786.6348,100.271
2787.5989,100.252
2788.5632,100.227
2789.5273,100.196
2790.4917,100.161
2791.4558,100.127
2792.4202,100.096
2793.3843,100.069
2794.3486,100.045
2795.3127,100.021
2796.2771,99.9919
2797.2412,99.9574
2798.2056,99.917
2799.1697,99.872
2800.1340,99.8242
2801.0981,99.7755
2802.0625,99.7278
2803.0266,99.6827
2803.9910,99.6414
2804.9551,99.6033
2805.9194,99.5653
2806.8835,99.5225
2807.8479,99.4697
2808.8120,99.4042
2809.7764,99.3266
2810.7405,99.2409
2811.7048,99.1526
2812.6689,99.0659
2813.6333,98.9818
2814.5974,98.8943
2815.5618,98.8049
2816.5259,98.7098
2817.4902,98.606
2818.4543,98.4921
2819.4187,98.3681
2820.3828,98.2347
2821.3472,98.0935
2822.3113,97.9454
2823.2756,97.7911
2824.2397,97.6303
2825.2041,97.4624
2826.1682,97.2868
2827.1326,97.1028
2828.0967,96.9094
2829.0610,96.7055
2830.0251,96.4892
2830.9895,96.2592
2831.9536,96.0148
2832.9180,95.7562
2833.8821,95.4839
2834.8464,95.1978
2835.8105,94.8968
2836.7749,94.5794
2837.7390,94.245
2838.7034,93.8951
2839.6675,93.5327
2840.6318,93.1611
2841.5959,92.7815
2842.5603,92.3922
2843.5244,91.9902
2844.4888,91.5733
2845.4529,91.1445
2846.4172,90.7128
2847.3813,90.2919
2848.3457,89.8956
2849.3098,89.5328
2850.2742,89.2052
2851.2383,88.9074
2852.2026,88.6316
2853.1667,88.3711
2854.1311,88.1229
2855.0952,87.8871
2856.0596,87.6638
2857.0237,87.451
2857.9880,87.244
2858.9521,87.0361
2859.9165,86.8208
2860.8806,86.5941
2861.8450,86.3545
2862.8091,86.1042
2863.7734,85.8485
2864.7375,85.5956
2865.7019,85.3549
2866.6660,85.1355
2867.6304,84.9436
2868.5945,84.7818
2869.5588,84.6497
2870.5229,84.5449
2871.4873,84.465
2872.4514,84.4074
2873.4158,84.3689
2874.3799,84.3443
2875.3442,84.3268
2876.3083,84.3082
2877.2727,84.2806
2878.2368,84.2388
2879.2012,84.1807
2880.1653,84.1089
2881.1296,84.0296
2882.0938,83.9515
2883.0581,83.8831
2884.0222,83.83
2884.9866,83.7928
2885.9507,83.7659
2886.9150,83.7382
2887.8792,83.6971
2888.8435,83.6325
2889.8076,83.5428
2890.7720,83.4365
2891.7361,83.3284
2892.7004,83.2295
2893.6646,83.1366
2894.6289,83.0282
2895.5930,82.8728
2896.5574,82.647
2897.5215,82.3545
2898.4858,82.0308
2899.4500,81.7314
2900.4143,81.5062
2901.3784,81.376
2902.3428,81.3239
2903.3069,81.3065
2904.2712,81.2753
2905.2354,81.1968
2906.1997,81.06
2907.1638,80.8719
2908.1282,80.6477
2909.0923,80.4028
2910.0566,80.1495
2911.0208,79.8974
2911.9851,79.6533
2912.9492,79.4202
2913.9136,79.1973
2914.8777,78.981
2915.8420,78.7688
2916.8062,78.5617
2917.7705,78.3639
2918.7346,78.1817
2919.6990,78.0211
2920.6631,77.8867
2921.6274,77.782
2922.5916,77.7093
2923.5559,77.6698
2924.5200,77.6631
2925.4844,77.6877
2926.4485,77.7424
2927.4128,77.8269
2928.3770,77.941
2929.3413,78.0832
2930.3054,78.2497
2931.2698,78.435
2932.2339,78.6344
2933.1982,78.8452
2934.1624,79.0674
2935.1267,79.3013
2936.0908,79.5452
2937.0552,79.7936
2938.0193,80.0385
2938.9836,80.2719
2939.9478,80.4893
2940.9121,80.6901
2941.8762,80.8768
2942.8406,81.0518
2943.8047,81.2141
2944.7690,81.3579
2945.7332,81.4734
2946.6975,81.551
2947.6616,81.5847
2948.6260,81.5755
2949.5901,81.5307
2950.5544,81.4613
2951.5186,81.3783
2952.4829,81.2894
2953.4470,81.1989
2954.4114,81.1095
2955.3755,81.0247
2956.3398,80.9503
2957.3040,80.8935
2958.2683,80.8602
2959.2324,80.8521
2960.1968,80.8657
2961.1609,80.8937
2962.1252,80.9285
2963.0894,80.9656
2964.0537,81.0056
2965.0178,81.0526
2965.9822,81.1123
2966.9463,81.19
2967.9106,81.2908
2968.8748,81.4207
2969.8391,81.5867
2970.8032,81.7951
2971.7676,82.0477
2972.7317,82.3393
2973.6960,82.6587
2974.6602,82.9923
2975.6245,83.3291
2976.5886,83.664
2977.5530,83.997
2978.5171,84.3305
2979.4814,84.665
2980.4456,84.9955
2981.4099,85.3102
2982.3740,85.5919
2983.3384,85.8248
2984.3025,86.0055
2985.2668,86.1525
2986.2310,86.3097
2987.1953,86.5339
2988.1594,86.8723
2989.1238,87.3376
2990.0879,87.8977
2991.0522,88.4875
2992.0164,89.037
2992.9807,89.5011
2993.9448,89.8742
2994.9092,90.1839
2995.8733,90.4692
2996.8376,90.7589
2997.8018,91.0624
2998.7661,91.3745
2999.7302,91.6867
3000.6946,91.9957
3001.6587,92.3044
3002.6230,92.617
3003.5872,92.9347
3004.5515,93.2539
3005.5156,93.5683
3006.4800,93.8722
3007.4441,94.1617
3008.4084,94.4358
3009.3726,94.6961
3010.3369,94.9462
3011.3010,95.1908
3012.2654,95.4336
3013.2295,95.6753
3014.1938,95.9125
3015.1580,96.1395
3016.1223,96.3509
3017.0864,96.5445
3018.0508,96.7217
3019.0149,96.8864
3019.9792,97.0427
3020.9434,97.1941
3021.9077,97.3422
3022.8718,97.4879
3023.8362,97.6306
3024.8003,97.7686
3025.7646,97.8991
3026.7288,98.0191
3027.6931,98.1271
3028.6572,98.2241
3029.6216,98.3141
3030.5857,98.4018
3031.5500,98.4911
3032.5142,98.5829
3033.4785,98.6753
3034.4426,98.7645
3035.4070,98.8471
3036.3711,98.9211
3037.3354,98.9862
3038.2996,99.0435
3039.2639,99.0938
3040.2280,99.138
3041.1924,99.1757
3042.1565,99.2058
3043.1208,99.2278
3044.0850,99.2417
3045.0493,99.2498
3046.0134,99.2559
3046.9778,99.2639
3047.9419,99.2758
3048.9063,99.2905
3049.8704,99.3041
3050.8347,99.3119
3051.7988,99.3117
3052.7632,99.3047
3053.7273,99.2953
3054.6917,99.2652
3055.6558,99.2352
3056.6201,99.2121
3057.5842,99.193
3058.5486,99.1732
3059.5127,99.1479
3060.4771,99.1138
3061.4412,99.0704
3062.4055,99.0202
3063.3696,98.9687
3064.3340,98.9223
3065.2981,98.8857
3066.2625,98.8595
3067.2266,98.8398
3068.1909,98.8203
3069.1550,98.7957
3070.1194,98.7643
3071.0835,98.7275
3072.0479,98.6882
3073.0120,98.6488
3073.9763,98.6091
3074.9404,98.5683
3075.9048,98.5259
3076.8689,98.483
3077.8333,98.4416
3078.7974,98.4032
3079.7617,98.3673
3080.7258,98.332
3081.6902,98.2953
3082.6543,98.2569
3083.6187,98.2179
3084.5828,98.1802
3085.5471,98.1444
3086.5112,98.109
3087.4756,98.0709
3088.4397,98.027
3089.4041,97.9761
3090.3682,97.9192
3091.3325,97.8587
3092.2966,97.7969
3093.2610,97.7344
3094.2251,97.6699
3095.1895,97.6012
3096.1536,97.5267
3097.1179,97.4474
3098.0820,97.3668
3099.0464,97.2891
3100.0105,97.2178
3100.9749,97.1543
3101.9390,97.0978
3102.9033,97.0463
3103.8674,96.9976
3104.8318,96.9497
3105.7959,96.8999
3106.7603,96.8451
3107.7244,96.7824
3108.6887,96.711
3109.6528,96.6329
3110.6172,96.5527
3111.5813,96.4747
3112.5457,96.4013
3113.5098,96.3316
3114.4741,96.263
3115.4382,96.1933
3116.4026,96.1228
3117.3667,96.054
3118.3311,95.9895
3119.2952,95.93
3120.2595,95.8735
3121.2236,95.8163
3122.1880,95.7554
3123.1521,95.6903
3124.1165,95.6232
3125.0806,95.5574
3126.0449,95.4943
3127.0090,95.4324
3127.9734,95.3673
3128.9375,95.2948
3129.9019,95.214
3130.8660,95.1287
3131.8303,95.0466
3132.7944,94.9752
3133.7588,94.9176
3134.7229,94.8703
3135.6873,94.8247
3136.6514,94.7717
3137.6157,94.7058
3138.5798,94.6272
3139.5442,94.5406
3140.5083,94.4522
3141.4727,94.367
3142.4368,94.2869
3143.4011,94.2114
3144.3652,94.1387
3145.3296,94.0676
3146.2937,93.9977
3147.2581,93.9293
3148.2222,93.863
3149.1865,93.7983
3150.1506,93.7339
3151.1150,93.6675
3152.0791,93.5964
3153.0435,93.5188
3154.0076,93.4344
3154.9719,93.3447
3155.9360,93.253
3156.9004,93.163
3157.8645,93.0778
3158.8289,92.999
3159.7930,92.9263
3160.7573,92.8577
3161.7214,92.7901
3162.6858,92.7203
3163.6499,92.6466
3164.6143,92.5692
3165.5784,92.4898
3166.5427,92.4112
3167.5068,92.3355
3168.4712,92.263
3169.4353,92.2263
3170.3997,92.1548
3171.3638,92.0793
3172.3281,91.998
3173.2922,91.9104
3174.2566,91.8179
3175.2207,91.7235
3176.1851,91.6313
3177.1492,91.5454
3178.1135,91.468
3179.0776,91.398
3180.0420,91.3321
3181.0061,91.2657
3181.9705,91.1959
3182.9346,91.1225
3183.8989,91.0472
3184.8630,90.9722
3185.8274,90.8979
3186.7915,90.8235
3187.7559,90.7474
3188.7200,90.6699
3189.6843,90.5928
3190.6484,90.5181
3191.6128,90.4463
3192.5769,90.3754
3193.5413,90.3022
3194.5054,90.2251
3195.4697,90.1454
3196.4338,90.0675
3197.3982,89.9966
3198.3623,89.9354
3199.3267,89.8825
3200.2908,89.8334
3201.2551,89.7826
3202.2192,89.7252
3203.1836,89.6588
3204.1477,89.5835
3205.1121,89.5018
3206.0762,89.4184
3207.0405,89.3389
3208.0046,89.2675
3208.9690,89.2048
3209.9331,89.1471
3210.8975,89.0882
3211.8616,89.0231
3212.8259,88.9515
3213.7900,88.8785
3214.7544,88.812
3215.7185,88.7573
3216.6829,88.7135
3217.6470,88.6735
3218.6113,88.6277
3219.5754,88.5699
3220.5398,88.5006
3221.5039,88.426
3222.4683,88.3543
3223.4324,88.291
3224.3967,88.2363
3225.3608,88.187
3226.3252,88.1392
3227.2893,88.0914
3228.2537,88.0446
3229.2178,88.0004
3230.1821,87.9585
3231.1462,87.9163
3232.1106,87.8698
3233.0747,87.8169
3234.0391,87.7585
3235.0032,87.6977
3235.9675,87.6375
3236.9316,87.5783
3237.8960,87.5187
3238.8601,87.4567
3239.8245,87.3932
3240.7886,87.3316
3241.7529,87.2771
3242.7170,87.2325
3243.6814,87.197
3244.6455,87.1659
3245.6099,87.1336
3246.5740,87.0959
3247.5383,87.0518
3248.5024,87.0026
3249.4668,86.9502
3250.4309,86.8959
3251.3953,86.8405
3252.3594,86.7849
3253.3237,86.7303
3254.2878,86.6782
3255.2522,86.6301
3256.2163,86.5868
3257.1807,86.5488
3258.1448,86.5156
3259.1091,86.4852
3260.0732,86.4545
3261.0376,86.4195
3262.0017,86.3778
3262.9661,86.3294
3263.9302,86.2771
3264.8945,86.2245
3265.8586,86.1738
3266.8230,86.1247
3267.7871,86.075
3268.7515,86.0221
3269.7156,85.9657
3270.6799,85.9077
3271.6440,85.8517
3272.6084,85.8013
3273.5725,85.759
3274.5369,85.7252
3275.5010,85.6981
3276.4653,85.6743
3277.4294,85.6495
3278.3938,85.6202
3279.3579,85.5849
3280.3223,85.5445
3281.2864,85.5018
3282.2507,85.4599
3283.2148,85.4204
3284.1792,85.3829
3285.1433,85.3456
3286.1077,85.3069
3287.0718,85.2664
3288.0361,85.225
3289.0002,85.1851
3289.9646,85.1489
3290.9287,85.1174
3291.8931,85.0898
3292.8572,85.0634
3293.8215,85.0344
3294.7856,84.9995
3295.7500,84.9575
3296.7141,84.9098
3297.6785,84.8603
3298.6426,84.8139
3299.6069,84.7746
3300.5710,84.7436
3301.5354,84.7197
3302.4995,84.6992
3303.4639,84.6779
3304.4280,84.6523
3305.3923,84.6211
3306.3564,84.5855
3307.3208,84.5482
3308.2849,84.5127
3309.2493,84.4809
3310.2134,84.4528
3311.1777,84.4267
3312.1418,84.4005
3313.1062,84.3731
3314.0703,84.3448
3315.0347,84.3164
3315.9988,84.2879
3316.9631,84.2586
3317.9272,84.2273
3318.8916,84.1943
3319.8557,84.1615
3320.8201,84.1321
3321.7842,84.1084
3322.7485,84.0898
3323.7126,84.0729
3324.6770,84.0533
3325.6411,84.0278
3326.6055,83.9959
3327.5696,83.9598
3328.5339,83.9223
3329.4980,83.8862
3330.4624,83.8537
3331.4265,83.8269
3332.3909,83.8073
3333.3550,83.795
3334.3193,83.7874
3335.2834,83.7798
3336.2478,83.7671
3337.2119,83.7476
3338.1763,83.7235
3339.1404,83.6999
3340.1047,83.6808
3341.0688,83.6661
3342.0332,83.6516
3342.9973,83.6324
3343.9617,83.6068
3344.9258,83.5779
3345.8901,83.5523
3346.8542,83.5357
3347.8186,83.5294
3348.7827,83.5297
3349.7471,83.53
3350.7112,83.5242
3351.6755,83.5093
3352.6396,83.486
3353.6040,83.4573
3354.5681,83.4275
3355.5325,83.4004
3356.4966,83.379
3357.4609,83.3642
3358.4250,83.3547
3359.3894,83.3471
3360.3535,83.3377
3361.3179,83.3251
3362.2820,83.3108
3363.2463,83.2994
3364.2104,83.2959
3365.1748,83.3026
3366.1389,83.3174
3367.1033,83.3344
3368.0674,83.3474
3369.0317,83.3524
3369.9958,83.3497
3370.9602,83.3428
3371.9243,83.3355
3372.8887,83.3298
3373.8528,83.3249
3374.8171,83.3186
3375.7813,83.3094
3376.7456,83.2979
3377.7097,83.2863
3378.6741,83.2775
3379.6382,83.2724
3380.6025,83.2707
3381.5667,83.2708
3382.5310,83.2727
3383.4951,83.2775
3384.4595,83.2873
3385.4236,83.3027
3386.3879,83.3221
3387.3521,83.3418
3388.3164,83.3582
3389.2805,83.3693
3390.2449,83.3758
3391.2090,83.3807
3392.1733,83.3885
3393.1375,83.4033
3394.1018,83.4279
3395.0659,83.4624
3396.0303,83.5036
3396.9944,83.545
3397.9587,83.5783
3398.9229,83.5973
3399.8872,83.6012
3400.8513,83.5958
3401.8157,83.591
3402.7798,83.5961
3403.7441,83.6156
3404.7083,83.6474
3405.6726,83.685
3406.6367,83.7212
3407.6011,83.7524
3408.5652,83.7791
3409.5295,83.8052
3410.4937,83.8342
3411.4580,83.8668
3412.4221,83.9
3413.3865,83.9285
3414.3506,83.9477
3415.3149,83.9565
3416.2791,83.9582
3417.2434,83.9601
3418.2075,83.9712
3419.1719,83.9988
3420.1360,84.0455
3421.1003,84.1077
3422.0645,84.1771
3423.0288,84.2441
3423.9929,84.3019
3424.9573,84.3481
3425.9214,84.3857
3426.8857,84.4217
3427.8499,84.4644
3428.8142,84.5199
3429.7783,84.5887
3430.7427,84.6649
3431.7068,84.7386
3432.6711,84.8001
3433.6353,84.8445
3434.5996,84.8736
3435.5637,84.8943
3436.5281,84.9154
3437.4922,84.9432
3438.4565,84.9793
3439.4207,85.0214
3440.3850,85.0653
3441.3491,85.1082
3442.3135,85.1498
3443.2776,85.1929
3444.2419,85.2412
3445.2061,85.2974
3446.1704,85.3615
3447.1345,85.4311
3448.0989,85.5024
3449.0630,85.5731
3450.0273,85.643
3450.9915,85.7132
3451.9558,85.7833
3452.9199,85.8513
3453.8843,85.9145
3454.8484,85.9717
3455.8127,86.0241
3456.7769,86.0747
3457.7412,86.1261
3458.7053,86.1797
3459.6697,86.2357
3460.6338,86.2944
3461.5981,86.3565
3462.5623,86.4229
3463.5266,86.4936
3464.4907,86.5672
3465.4551,86.6422
3466.4192,86.7168
3467.3835,86.7897
3468.3477,86.8593
3469.3120,86.9232
3470.2761,86.9796
3471.2405,87.029
3472.2046,87.0758
3473.1689,87.1274
3474.1331,87.1896
3475.0974,87.2632
3476.0615,87.3428
3477.0259,87.4197
3477.9900,87.4879
3478.9543,87.5471
3479.9185,87.6033
3480.8828,87.6638
3481.8469,87.7323
3482.8113,87.8063
3483.7754,87.8804
3484.7397,87.9515
3485.7039,88.022
3486.6682,88.0975
3487.6323,88.1825
3488.5967,88.2758
3489.5608,88.3708
3490.5251,88.4594
3491.4893,88.5373
3492.4536,88.6069
3493.4177,88.6746
3494.3821,88.7466
3495.3462,88.8234
3496.3105,88.8986
3497.2747,88.9631
3498.2390,89.0122
3499.2031,89.0494
3500.1675,89.0872
3501.1316,89.1413
3502.0959,89.2232
3503.0601,89.3314
3504.0244,89.4505
3504.9885,89.562
3505.9529,89.6561
3506.9170,89.7342
3507.8813,89.8051
3508.8455,89.8785
3509.8098,89.9607
3510.7739,90.0514
3511.7383,90.1454
3512.7024,90.2372
3513.6667,90.324
3514.6309,90.4053
3515.5952,90.4815
3516.5593,90.5524
3517.5237,90.6181
3518.4878,90.6798
3519.4521,90.7401
3520.4163,90.8024
3521.3806,90.8697
3522.3447,90.9427
3523.3091,91.0194
3524.2732,91.0968
3525.2375,91.1748
3526.2017,91.2577
3527.1660,91.3531
3528.1301,91.4656
3529.0945,91.5919
3530.0586,91.7207
3531.0229,91.8401
3531.9871,91.944
3532.9514,92.0348
3533.9155,92.1215
3534.8799,92.215
3535.8440,92.3223
3536.8083,92.4402
3537.7725,92.5563
3538.7368,92.6558
3539.7009,92.7299
3540.6653,92.7805
3541.6294,92.8189
3542.5938,92.8634
3543.5579,92.9351
3544.5222,93.0473
3545.4863,93.1942
3546.4507,93.3499
3547.4148,93.487
3548.3792,93.5957
3549.3433,93.686
3550.3076,93.7767
3551.2717,93.8835
3552.2361,94.0103
3553.2002,94.1479
3554.1646,94.2808
3555.1287,94.399
3556.0930,94.5025
3557.0571,94.5969
3558.0215,94.6857
3558.9856,94.7661
3559.9500,94.8305
3560.9141,94.8729
3561.8784,94.8938
3562.8425,94.9016
3563.8069,94.9132
3564.7710,94.9595
3565.7354,95.0849
3566.6995,95.31
3567.6638,95.5823
3568.6279,95.8116
3569.5923,95.9557
3570.5564,96.0347
3571.5208,96.0881
3572.4849,96.1415
3573.4492,96.201
3574.4133,96.2628
3575.3777,96.3244
3576.3418,96.3891
3577.3062,96.4631
3578.2703,96.5487
3579.2346,96.6395
3580.1987,96.7234
3581.1631,96.7903
3582.1272,96.8386
3583.0916,96.8734
3584.0557,96.901
3585.0200,96.9301
3585.9841,96.9789
3586.9485,97.0635
3587.9126,97.1657
3588.8770,97.2384
3589.8411,97.2573
3590.8054,97.2385
3591.7695,97.2121
3592.7339,97.1991
3593.6980,97.206
3594.6624,97.2276
3595.6265,97.2518
3596.5908,97.2697
3597.5549,97.2862
3598.5193,97.3184
3599.4834,97.3819
3600.4478,97.4761
3601.4119,97.5822
3602.3762,97.6784
3603.3403,97.7561
3604.3047,97.8212
3605.2688,97.8854
3606.2332,97.9594
3607.1973,98.0471
3608.1616,98.1382
3609.1257,98.2092
3610.0901,98.2387
3611.0542,98.2245
3612.0186,98.1837
3612.9829,98.1409
3613.9470,98.1153
3614.9114,98.1146
3615.8755,98.137
3616.8398,98.1775
3617.8040,98.2321
3618.7683,98.2931
3619.7324,98.3371
3620.6968,98.3324
3621.6609,98.2738
3622.6252,98.1964
3623.5894,98.1501
3624.5537,98.1657
3625.5178,98.2381
3626.4822,98.3358
3627.4463,98.4345
3628.4106,98.5313
3629.3748,98.602
3630.3391,98.603
3631.3032,98.5397
3632.2676,98.4645
3633.2317,98.4229
3634.1960,98.4268
3635.1602,98.4597
3636.1245,98.4957
3637.0886,98.5153
3638.0530,98.5111
3639.0171,98.4839
3639.9814,98.4368
3640.9456,98.3751
3641.9099,98.3093
3642.8740,98.2539
3643.8384,98.2192
3644.8025,98.1963
3645.7668,98.1501
3646.7310,98.0472
3647.6953,97.9354
3648.6594,97.9542
3649.6238,98.1141
3650.5879,98.2407
3651.5522,98.2425
3652.5164,98.1673
3653.4807,98.0847
3654.4448,98.0249
3655.4092,97.9825
3656.3733,97.9407
3657.3376,97.8881
3658.3018,97.8273
3659.2661,97.7748
3660.2302,97.7477
3661.1946,97.7489
3662.1587,97.7665
3663.1230,97.7861
3664.0872,97.8039
3665.0515,97.8247
3666.0156,97.8479
3666.9800,97.8582
3667.9441,97.84
3668.9084,97.804
3669.8726,97.7787
3670.8369,97.7708
3671.8010,97.7637
3672.7654,97.7413
3673.7295,97.7027
3674.6938,97.6811
3675.6580,97.7293
3676.6223,97.8433
3677.5864,97.9572
3678.5508,98.0292
3679.5149,98.0635
3680.4792,98.0731
3681.4434,98.0626
3682.4077,98.0376
3683.3718,98.014
3684.3362,98.0106
3685.3003,98.0289
3686.2646,98.0427
3687.2288,98.0179
3688.1931,97.9634
3689.1572,97.9452
3690.1216,98.0031
3691.0857,98.1028
3692.0500,98.2005
3693.0142,98.2845
3693.9785,98.3594
3694.9426,98.4287
3695.9070,98.4945
3696.8711,98.5624
3697.8354,98.641
3698.7996,98.7373
3699.7639,98.852
3700.7280,98.9767
3701.6924,99.092
3702.6565,99.1739
3703.6208,99.2104
3704.5850,99.2121
3705.5493,99.2019
3706.5134,99.1946
3707.4778,99.1889
3708.4419,99.1829
3709.4063,99.2083
3710.3704,99.3313
3711.3347,99.5653
3712.2988,99.8107
3713.2632,99.9587
3714.2273,99.9888
3715.1917,99.9432
3716.1558,99.8671
3717.1201,99.7831
3718.0842,99.6947
3719.0486,99.6008
3720.0127,99.5075
3720.9771,99.4287
3721.9412,99.379
3722.9055,99.3662
3723.8696,99.3874
3724.8340,99.4272
3725.7981,99.4642
3726.7625,99.4858
3727.7266,99.5084
3728.6909,99.53
3729.6550,99.5591
3730.6194,99.588
3731.5835,99.5965
3732.5479,99.5763
3733.5120,99.5619
3734.4763,99.6155
3735.4404,99.7385
3736.4048,99.8437
3737.3689,99.8689
3738.3333,99.8483
3739.2974,99.8641
3740.2617,99.9753
3741.2258,100.179
3742.1902,100.402
3743.1543,100.54
3744.1187,100.518
3745.0828,100.349
3746.0471,100.111
3747.0112,99.8916
3747.9756,99.7456
3748.9397,99.6954
3749.9041,99.7531
3750.8682,99.897
3751.8325,100.025
3752.7966,100.042
3753.7610,99.9584
3754.7251,99.8484
3755.6895,99.7672
3756.6536,99.7326
3757.6179,99.7413
3758.5820,99.7813
3759.5464,99.8325
3760.5105,99.8723
3761.4749,99.8915
3762.4390,99.8955
3763.4033,99.8933
3764.3674,99.8893
3765.3318,99.8849
3766.2959,99.8819
3767.2603,99.8854
3768.2244,99.9019
3769.1887,99.9342
3770.1528,99.975
3771.1172,100.007
3772.0813,100.016
3773.0457,100.005
3774.0098,99.9873
3774.9741,99.9748
3775.9382,99.9696
3776.9026,99.9661
3777.8667,99.9606
3778.8311,99.9511
3779.7952,99.9313
3780.7595,99.8943
3781.7236,99.8434
3782.6880,99.7936
3783.6521,99.7643
3784.6165,99.7693
3785.5806,99.8094
3786.5449,99.872
3787.5090,99.9383
3788.4734,99.994
3789.4375,100.035
3790.4019,100.061
3791.3660,100.073
3792.3303,100.063
3793.2944,100.02
3794.2588,99.9431
3795.2229,99.8494
3796.1873,99.7706
3797.1514,99.7332
3798.1157,99.7401
3799.0798,99.771
3800.0442,99.8001
3801.0083,99.8139
3801.9727,99.8129
3802.9368,99.8077
3803.9011,99.8184
3804.8652,99.8643
3805.8296,99.9439
3806.7937,100.027
3807.7581,100.068
3808.7222,100.043
3809.6865,99.9747
3810.6506,99.9165
3811.6150,99.9068
3812.5791,99.9413
3813.5435,99.9787
3814.5076,99.9754
3815.4719,99.9198
3816.4360,99.834
3817.4004,99.7509
3818.3645,99.6966
3819.3289,99.6862
3820.2930,99.7179
3821.2573,99.7617
3822.2214,99.7713
3823.1858,99.7285
3824.1499,99.6605
3825.1143,99.6106
3826.0784,99.6058
3827.0427,99.6455
3828.0068,99.7094
3828.9712,99.7718
3829.9353,99.8157
3830.8997,99.8385
3831.8638,99.8487
3832.8281,99.8565
3833.7922,99.863
3834.7566,99.8566
3835.7207,99.8197
3836.6851,99.7474
3837.6492,99.6624
3838.6135,99.6025
3839.5776,99.5901
3840.5420,99.6237
3841.5061,99.6898
3842.4705,99.7689
3843.4346,99.8332
3844.3989,99.8543
3845.3630,99.8223
3846.3274,99.7588
3847.2915,99.7114
3848.2559,99.7292
3849.2200,99.8346
3850.1843,100.005
3851.1484,100.18
3852.1128,100.319
3853.0769,100.429
3854.0413,100.463
3855.0054,100.347
3855.9697,100.125
3856.9338,99.9111
3857.8982,99.7855
3858.8623,99.7586
3859.8267,99.7892
3860.7908,99.8176
3861.7551,99.8053
3862.7192,99.7626
3863.6836,99.7337
3864.6477,99.7505
3865.6121,99.8097
3866.5762,99.8851
3867.5405,99.9448
3868.5046,99.9652
3869.4690,99.9453
3870.4331,99.908
3871.3975,99.8797
3872.3616,99.8683
3873.3259,99.8659
3874.2900,99.8657
3875.2544,99.8686
3876.2185,99.8769
3877.1829,99.8854
3878.1470,99.8829
3879.1113,99.8633
3880.0754,99.837
3881.0398,99.8275
3882.0039,99.8555
3882.9683,99.9246
3883.9324,100.018
3884.8967,100.102
3885.8608,100.144
3886.8252,100.134
3887.7893,100.083
3888.7537,100.016
3889.7178,99.9546
3890.6821,99.9094
3891.6462,99.8852
3892.6106,99.8743
3893.5747,99.8655
3894.5391,99.8615
3895.5032,99.8736
3896.4675,99.9026
3897.4316,99.9326
3898.3960,99.9445
3899.3601,99.9328
3900.3245,99.9069
3901.2886,99.8806
3902.2529,99.8665
3903.2170,99.872
3904.1814,99.8925
3905.1455,99.9133
3906.1099,99.9245
3907.0740,99.9295
3908.0383,99.9372
3909.0024,99.9512
3909.9668,99.9673
3910.9309,99.9788
3911.8953,99.9828
3912.8594,99.9812
3913.8237,99.9774
3914.7878,99.9734
3915.7522,99.9691
3916.7163,99.9633
3917.6807,99.9522
3918.6448,99.9298
3919.6091,99.8941
3920.5732,99.8528
3921.5376,99.8191
3922.5017,99.8026
3923.4661,99.8047
3924.4302,99.8164
3925.3945,99.823
3926.3586,99.8134
3927.3230,99.7877
3928.2871,99.755
3929.2515,99.7284
3930.2156,99.7215
3931.1799,99.7441
3932.1440,99.7937
3933.1084,99.8535
3934.0725,99.9042
3935.0369,99.9361
3936.0010,99.9496
3936.9653,99.949
3937.9294,99.9367
3938.8938,99.9131
3939.8579,99.8802
3940.8223,99.8451
3941.7864,99.819
3942.7507,99.811
3943.7148,99.8208
3944.6792,99.84
3945.6433,99.8567
3946.6077,99.8612
3947.5718,99.85
3948.5361,99.8278
3949.5002,99.8053
3950.4646,99.7925
3951.4287,99.7942
3952.3931,99.8089
3953.3572,99.8314
3954.3215,99.8546
3955.2856,99.8722
3956.2500,99.8809
3957.2141,99.8814
3958.1785,99.877
3959.1426,99.8721
3960.1069,99.8704
3961.0710,99.8743
3962.0354,99.8838
3962.9995,99.8971
3963.9639,99.9111
3964.9280,99.9219
3965.8923,99.9255
3966.8564,99.9185
3967.8208,99.8997
3968.7849,99.8717
3969.7493,99.8419
3970.7134,99.8195
3971.6777,99.8122
3972.6418,99.8221
3973.6062,99.844
3974.5703,99.8684
3975.5347,99.8859
3976.4988,99.8917
3977.4631,99.8875
3978.4272,99.8785
3979.3916,99.8697
3980.3557,99.8634
3981.3201,99.8585
3982.2842,99.8531
3983.2485,99.8461
3984.2126,99.8385
3985.1770,99.8322
3986.1411,99.8284
3987.1055,99.8267
3988.0696,99.8246
3989.0339,99.819
3989.9980,99.8084
3990.9624,99.7941
3991.9265,99.7808
3992.8909,99.7743
3993.8550,99.7785
3994.8193,99.793
3995.7834,99.8118
3996.7478,99.827
3997.7119,99.8334
3998.6763,99.832
3999.6404,99.8289
4000.6047,99.6954

##### Extended Information
[Comments]
Sample name
Comment
User
Division
Company,HANKYONG

[Detailed Information]
Creation date,4/24/2024 10:52 AM
Date modified,4/24/2024 10:52 AM

Data array type,Linear data array
Horizontal axis,Wavenumber [cm-1]
Vertical axis,%T
Start,649.893 cm-1
End,4000.6 cm-1
Data interval,0.964233 cm-1
Data points,3476    

[Measurement Information]
Model Name,FT/IR-4700typeA
Serial Number,D056761788

Accessory,ATR PRO ONE
Accessory S/N,C174761809
Incident angle,45 deg

Measurement Date,4/24/2024 10:51 AM

Light Source,Standard
Detector,TGS
Accumulation,32
Resolution,4 cm-1
Zero Filling,On
Apodization,Cosine
Gain,Auto (4)
Aperture,Auto (7.1 mm)
Scanning Speed,Auto (2 mm/sec)
Filter,Auto (30000 Hz)

