TITLE,
DATA TYPE,INFRARED SPECTRUM
ORIGIN,JASCO
OWNER,
DATE,24/04/24
TIME,10:07:16
SPECTROMETER/DATA SYSTEM,
LOCALE,1033
RESOLUTION,
DELTAX,0.964233
XUNITS,1/CM
YUNITS,TRANSMITTANCE
FIRSTX,  649.8934
LASTX, 4000.6047
NPOINTS,    3476
FIRSTY,    99.98819
MAXY,   101.52610
MINY,    64.42254
XYDATA
649.8934,99.9882
650.8576,99.976
651.8218,99.956
652.7861,99.8167
653.7503,99.6883
654.7145,99.5972
655.6788,99.5386
656.6430,99.4959
657.6072,99.4499
658.5715,99.3896
659.5357,99.3172
660.4999,99.2406
661.4642,99.1584
662.4284,99.0518
663.3926,98.8903
664.3569,98.6412
665.3211,98.2802
666.2853,97.8136
667.2496,97.3325
668.2138,97.0399
669.1780,97.0734
670.1423,97.3068
671.1065,97.5304
672.0707,97.6526
673.0350,97.6794
673.9992,97.6511
674.9634,97.6139
675.9277,97.6084
676.8919,97.66
677.8561,97.7768
678.8204,97.9555
679.7846,98.1881
680.7488,98.4612
681.7131,98.7541
682.6773,99.0415
683.6415,99.3047
684.6058,99.5403
685.5700,99.7589
686.5342,99.9724
687.4985,100.179
688.4627,100.355
689.4269,100.461
690.3912,100.46
691.3554,100.353
692.3196,100.212
693.2839,100.154
694.2481,100.264
695.2123,100.515
696.1766,100.81
697.1408,101.061
698.1050,101.214
699.0693,101.262
700.0335,101.231
700.9977,101.169
701.9620,101.119
702.9262,101.1
703.8904,101.11
704.8547,101.125
705.8189,101.123
706.7831,101.092
707.7474,101.036
708.7116,100.972
709.6758,100.92
710.6401,100.889
711.6043,100.873
712.5685,100.851
713.5328,100.797
714.4970,100.696
715.4612,100.741
716.4255,100.542
717.3897,100.335
718.3539,100.147
719.3182,99.9998
720.2824,99.9034
721.2466,99.8537
722.2109,99.8364
723.1751,99.8332
724.1393,99.8301
725.1036,99.8212
726.0678,99.8093
727.0320,99.8029
727.9963,99.8121
728.9605,99.8438
729.9247,99.8994
730.8890,99.9746
731.8532,100.096
732.8174,100.261
733.7817,100.411
734.7459,100.536
735.7101,100.627
736.6744,100.683
737.6386,100.709
738.6028,100.717
739.5671,100.716
740.5313,100.711
741.4955,100.699
742.4598,100.672
743.4240,100.623
744.3882,100.558
745.3525,100.486
746.3167,100.422
747.2809,100.374
748.2452,100.343
749.2094,100.319
750.1736,100.294
751.1379,100.261
752.1021,100.217
753.0663,100.16
754.0306,100.088
754.9948,100.003
755.9590,99.9096
756.9233,99.8227
757.8875,99.7579
758.8517,99.7262
759.8160,99.7284
760.7802,99.7561
761.7444,99.7976
762.7087,99.8443
763.6729,99.8934
764.6371,99.945
765.6014,99.9982
766.5656,100.049
767.5298,100.092
768.4941,100.123
769.4583,100.143
770.4225,100.154
771.3868,100.158
772.3510,100.158
773.3152,100.154
774.2795,100.147
775.2437,100.138
776.2079,100.126
777.1722,100.109
778.1364,100.082
779.1006,100.04
780.0649,99.9836
781.0291,99.9152
781.9933,99.8419
782.9576,99.7705
783.9218,99.7054
784.8860,99.6476
785.8503,99.5947
786.8145,99.5426
787.7787,99.4869
788.7430,99.4249
789.7072,99.3559
790.6714,99.2816
791.6357,99.205
792.5999,99.1299
793.5641,99.059
794.5284,98.9935
795.4926,98.9327
796.4568,98.8738
797.4211,98.812
798.3853,98.7419
799.3495,98.659
800.3138,98.5608
801.2780,98.4481
802.2422,98.323
803.2065,98.187
804.1707,98.0389
805.1349,97.8748
806.0992,97.6902
807.0634,97.4832
808.0276,97.2568
808.9919,97.0192
809.9561,96.7815
810.9203,96.5549
811.8846,96.3479
812.8488,96.1655
813.8130,96.0096
814.7773,95.8801
815.7415,95.7771
816.7057,95.701
817.6700,95.6536
818.6342,95.6366
819.5984,95.65
820.5627,95.6902
821.5269,95.7496
822.4911,95.8177
823.4554,95.884
824.4196,95.9418
825.3839,95.9897
826.3481,96.0306
827.3123,96.0679
828.2766,96.1011
829.2408,96.1236
830.2050,96.123
831.1693,96.0849
832.1335,95.9971
833.0977,95.8533
834.0620,95.6534
835.0262,95.4038
835.9904,95.1145
836.9547,94.7974
837.9189,94.4632
838.8831,94.1197
839.8474,93.7713
840.8116,93.4209
841.7758,93.0741
842.7401,92.7421
843.7043,92.4415
844.6685,92.189
845.6328,91.995
846.5970,91.8589
847.5612,91.7711
848.5255,91.7192
849.4897,91.6955
850.4539,91.7
851.4182,91.7371
852.3824,91.8096
853.3466,91.9132
854.3109,92.0372
855.2751,92.1697
856.2393,92.303
857.2036,92.4364
858.1678,92.5745
859.1320,92.7235
860.0963,92.8877
861.0605,93.0695
862.0247,93.2711
862.9890,93.4964
863.9532,93.7512
864.9174,94.0417
865.8817,94.3721
866.8459,94.7432
867.8101,95.1513
868.7744,95.5894
869.7386,96.0477
870.7028,96.5148
871.6671,96.9784
872.6313,97.4266
873.5955,97.8481
874.5598,98.2342
875.5240,98.5793
876.4882,98.8812
877.4525,99.1407
878.4167,99.3611
879.3809,99.5464
880.3452,99.7007
881.3094,99.8272
882.2736,99.9296
883.2379,100.012
884.2021,100.081
885.1663,100.041
886.1306,99.9329
887.0948,99.8214
888.0590,99.7003
889.0233,99.5609
889.9875,99.3952
890.9517,99.2001
891.9160,98.9789
892.8802,98.7392
893.8444,98.4892
894.8087,98.2332
895.7729,97.9702
896.7371,97.6943
897.7014,97.3978
898.6656,97.074
899.6298,96.7193
900.5941,96.3346
901.5583,95.9257
902.5225,95.5022
903.4868,95.0753
904.4510,94.6546
905.4152,94.245
906.3795,93.8468
907.3437,93.4575
908.3079,93.076
909.2722,92.7051
910.2364,92.3511
911.2006,92.0213
912.1649,91.721
913.1291,91.4522
914.0933,91.2163
915.0576,91.0155
916.0218,90.8549
916.9860,90.7395
917.9503,90.6721
918.9145,90.6509
919.8787,90.6721
920.8430,90.7327
921.8072,90.8333
922.7714,90.9771
923.7357,91.1653
924.6999,91.3942
925.6641,91.655
926.6284,91.9379
927.5926,92.2396
928.5568,92.5665
929.5211,92.9333
930.4853,93.3577
931.4495,93.8521
932.4138,94.4196
933.3780,95.0526
934.3422,95.7342
935.3065,96.4415
936.2707,97.1463
937.2349,97.8184
938.1992,98.4285
939.1634,98.9532
940.1276,99.379
941.0919,99.7029
942.0561,99.9296
943.0203,100.066
943.9846,100.119
944.9488,100.091
945.9130,99.989
946.8773,99.9189
947.8415,100.059
948.8057,100.152
949.7700,100.207
950.7342,100.231
951.6984,100.229
952.6627,100.204
953.6269,100.157
954.5911,100.088
955.5554,99.9945
956.5196,99.8682
957.4838,99.7012
958.4481,99.4882
959.4123,99.2283
960.3765,98.9256
961.3408,98.5876
962.3050,98.2235
963.2692,97.8433
964.2335,97.4574
965.1977,97.0763
966.1619,96.7097
967.1262,96.3655
968.0904,96.0491
969.0546,95.7631
970.0189,95.5084
970.9831,95.2848
971.9473,95.0906
972.9116,94.9234
973.8758,94.7799
974.8400,94.6557
975.8043,94.5452
976.7685,94.4405
977.7327,94.3307
978.6970,94.2033
979.6612,94.046
980.6254,93.8501
981.5897,93.612
982.5539,93.3331
983.5181,93.0174
984.4824,92.67
985.4466,92.2976
986.4108,91.9114
987.3751,91.5292
988.3393,91.1756
989.3035,90.8777
990.2678,90.6585
991.2320,90.5297
992.1962,90.4896
993.1605,90.5248
994.1247,90.6161
995.0889,90.745
996.0532,90.8981
997.0174,91.0666
997.9816,91.2438
998.9459,91.4199
999.9101,91.5804
1000.8743,91.706
1001.8386,91.7749
1002.8028,91.7661
1003.7670,91.661
1004.7313,91.444
1005.6955,91.1032
1006.6597,90.6313
1007.6240,90.0268
1008.5882,89.2939
1009.5524,88.4415
1010.5167,87.4804
1011.4809,86.4211
1012.4451,85.2736
1013.4094,84.0478
1014.3736,82.7556
1015.3378,81.411
1016.3021,80.0304
1017.2663,78.6314
1018.2305,77.2318
1019.1948,75.8474
1020.1590,74.4915
1021.1232,73.1735
1022.0875,71.9003
1023.0517,70.6794
1024.0160,69.5218
1024.9802,68.4434
1025.9445,67.4636
1026.9087,66.6007
1027.8729,65.8687
1028.8372,65.2765
1029.8014,64.8316
1030.7656,64.5433
1031.7299,64.4225
1032.6941,64.4785
1033.6583,64.7122
1034.6226,65.1133
1035.5868,65.6611
1036.5510,66.3305
1037.5153,67.0977
1038.4795,67.9426
1039.4437,68.848
1040.4080,69.7974
1041.3722,70.7741
1042.3364,71.764
1043.3007,72.759
1044.2649,73.7585
1045.2291,74.7682
1046.1934,75.7961
1047.1576,76.8491
1048.1218,77.9315
1049.0861,79.0454
1050.0503,80.1923
1051.0145,81.3727
1051.9788,82.585
1052.9430,83.8245
1053.9072,85.0835
1054.8715,86.3522
1055.8357,87.6212
1056.7999,88.8815
1057.7642,90.1232
1058.7284,91.3337
1059.6926,92.4969
1060.6569,93.5947
1061.6211,94.6124
1062.5853,95.5436
1063.5496,96.3925
1064.5138,97.1718
1065.4780,97.8955
1066.4423,98.5697
1067.4065,98.828
1068.3707,98.7849
1069.3350,98.6394
1070.2992,98.3744
1071.2634,97.9866
1072.2277,97.4874
1073.1919,96.8963
1074.1561,96.2326
1075.1204,95.5084
1076.0846,94.7285
1077.0488,93.8939
1078.0131,93.0077
1078.9773,92.0789
1079.9415,91.1219
1080.9058,90.1536
1081.8700,89.1899
1082.8342,88.244
1083.7985,87.3261
1084.7627,86.445
1085.7269,85.6089
1086.6912,84.8259
1087.6554,84.1039
1088.6196,83.4495
1089.5839,82.8657
1090.5481,82.3502
1091.5123,81.893
1092.4766,81.4767
1093.4408,81.0803
1094.4050,80.6839
1095.3693,80.2748
1096.3335,79.849
1097.2977,79.4091
1098.2620,78.9583
1099.2262,78.4951
1100.1904,78.0118
1101.1547,77.4992
1102.1189,76.9531
1103.0831,76.3802
1104.0474,75.7981
1105.0116,75.2314
1105.9758,74.7055
1106.9401,74.2424
1107.9043,73.8612
1108.8685,73.5806
1109.8328,73.4209
1110.7970,73.4043
1111.7612,73.5506
1112.7255,73.8731
1113.6897,74.3761
1114.6539,75.0552
1115.6182,75.9007
1116.5824,76.901
1117.5466,78.044
1118.5109,79.3176
1119.4751,80.7075
1120.4393,82.196
1121.4036,83.7608
1122.3678,85.3754
1123.3320,87.011
1124.2963,88.6388
1125.2605,90.2333
1126.2247,91.7735
1127.1890,93.2435
1128.1532,94.6303
1129.1174,95.9221
1130.0817,97.1059
1131.0459,98.1676
1132.0101,99.094
1132.9744,99.8742
1133.9386,100.502
1134.9028,100.976
1135.8671,101.299
1136.8313,101.479
1137.7955,101.526
1138.7598,101.453
1139.7240,101.273
1140.6882,101
1141.6525,100.643
1142.6167,100.213
1143.5809,99.7204
1144.5452,99.249
1145.5094,99.0379
1146.4736,98.8126
1147.4379,98.5953
1148.4021,98.407
1149.3663,98.2646
1150.3306,98.18
1151.2948,98.1595
1152.2590,98.204
1153.2233,98.3089
1154.1875,98.4646
1155.1517,98.6579
1156.1160,98.8737
1157.0802,99.0965
1158.0444,99.3114
1159.0087,99.5029
1159.9729,99.6555
1160.9371,99.7543
1161.9014,99.7878
1162.8656,99.751
1163.8298,99.6464
1164.7941,99.4829
1165.7583,99.2716
1166.7225,99.0218
1167.6868,98.7391
1168.6510,98.4258
1169.6152,98.0827
1170.5795,97.7104
1171.5437,97.3095
1172.5079,96.8796
1173.4722,96.4189
1174.4364,95.9256
1175.4006,95.4007
1176.3649,94.8498
1177.3291,94.2826
1178.2933,93.7104
1179.2576,93.1427
1180.2218,92.585
1181.1860,92.0395
1182.1503,91.5073
1183.1145,90.9919
1184.0787,90.4995
1185.0430,90.0381
1186.0072,89.6133
1186.9714,89.2259
1187.9357,88.8716
1188.8999,88.5425
1189.8641,88.2315
1190.8284,87.9339
1191.7926,87.6474
1192.7568,87.3713
1193.7211,87.1034
1194.6853,86.8404
1195.6495,86.5781
1196.6138,86.3132
1197.5780,86.044
1198.5422,85.7708
1199.5065,85.5014
1200.4707,85.2238
1201.4349,84.9478
1202.3992,84.6771
1203.3634,84.4172
1204.3276,84.175
1205.2919,83.9584
1206.2561,83.7742
1207.2203,83.6273
1208.1846,83.5211
1209.1488,83.4579
1210.1130,83.4404
1211.0773,83.4717
1212.0415,83.5554
1213.0057,83.6936
1213.9700,83.8874
1214.9342,84.1358
1215.8984,84.437
1216.8627,84.7882
1217.8269,85.186
1218.7911,85.6248
1219.7554,86.0973
1220.7196,86.5944
1221.6838,87.1062
1222.6481,87.6227
1223.6123,88.1339
1224.5765,88.6294
1225.5408,89.0992
1226.5050,89.5344
1227.4692,89.9274
1228.4335,90.2732
1229.3977,90.5694
1230.3619,90.8173
1231.3262,91.0237
1232.2904,91.2033
1233.2546,91.379
1234.2189,91.5796
1235.1831,91.8336
1236.1473,92.1634
1237.1116,92.5803
1238.0758,93.084
1239.0400,93.6654
1240.0043,94.3094
1240.9685,94.9967
1241.9327,95.7036
1242.8970,96.4029
1243.8612,97.0672
1244.8254,97.6748
1245.7897,98.2145
1246.7539,98.6865
1247.7181,98.9474
1248.6824,99.0704
1249.6466,99.1502
1250.6108,99.1914
1251.5751,99.1959
1252.5393,99.1646
1253.5035,99.0975
1254.4678,98.994
1255.4320,98.8533
1256.3962,98.6748
1257.3605,98.4604
1258.3247,98.2138
1259.2889,97.9411
1260.2532,97.6485
1261.2174,97.3419
1262.1816,97.0258
1263.1459,96.7042
1264.1101,96.3811
1265.0743,96.0618
1266.0386,95.7534
1267.0028,95.4649
1267.9670,95.2076
1268.9313,94.9934
1269.8955,94.8336
1270.8597,94.7363
1271.8240,94.7049
1272.7882,94.7379
1273.7524,94.8306
1274.7167,94.977
1275.6809,95.171
1276.6451,95.4066
1277.6094,95.6762
1278.5736,95.9713
1279.5378,96.2822
1280.5021,96.6001
1281.4663,96.9183
1282.4305,97.2321
1283.3948,97.5386
1284.3590,97.8357
1285.3232,98.1217
1286.2875,98.3955
1287.2517,98.6561
1288.2159,98.9031
1289.1802,99.1355
1290.1444,99.3523
1291.1086,99.5523
1292.0729,99.7353
1293.0371,99.9023
1294.0013,100.056
1294.9656,100.199
1295.9298,100.334
1296.8940,100.462
1297.8583,100.58
1298.8225,100.684
1299.7867,100.768
1300.7510,100.829
1301.7152,100.861
1302.6794,100.867
1303.6437,100.846
1304.6079,100.803
1305.5721,100.74
1306.5364,100.659
1307.5006,100.561
1308.4648,100.445
1309.4291,100.311
1310.3933,100.161
1311.3575,99.9953
1312.3218,99.8186
1313.2860,99.6341
1314.2502,99.4454
1315.2145,99.2548
1316.1787,99.0646
1317.1429,98.8766
1318.1072,98.6921
1319.0714,98.5113
1320.0356,98.3322
1320.9999,98.1522
1321.9641,97.9704
1322.9283,97.7896
1323.8926,97.617
1324.8568,97.4627
1325.8210,97.3373
1326.7853,97.2498
1327.7495,97.2069
1328.7137,97.2141
1329.6780,97.2761
1330.6422,97.3946
1331.6064,97.5647
1332.5707,97.7727
1333.5349,97.9992
1334.4991,98.2282
1335.4634,98.455
1336.4276,98.6896
1337.3918,98.9518
1338.3561,99.2564
1339.3203,99.5941
1340.2845,99.9301
1341.2488,100.225
1342.2130,100.458
1343.1772,100.632
1344.1415,100.761
1345.1057,100.858
1346.0699,100.931
1347.0342,100.983
1347.9984,101.015
1348.9626,101.026
1349.9269,101.017
1350.8911,100.99
1351.8553,100.947
1352.8196,100.891
1353.7838,100.828
1354.7480,100.759
1355.7123,100.685
1356.6765,100.601
1357.6407,100.505
1358.6050,100.399
1359.5692,100.296
1360.5334,100.21
1361.4977,100.155
1362.4619,100.128
1363.4261,100.109
1364.3904,100.08
1365.3546,100.036
1366.3188,99.9832
1367.2831,99.9344
1368.2473,99.8945
1369.2115,99.8618
1370.1758,99.8329
1371.1400,99.8093
1372.1042,99.8007
1373.0685,99.8197
1374.0327,99.8698
1374.9969,99.9375
1375.9612,100
1376.9254,100.044
1377.8896,100.073
1378.8539,100.101
1379.8181,100.138
1380.7823,100.183
1381.7466,100.226
1382.7108,100.26
1383.6750,100.287
1384.6393,100.321
1385.6035,100.379
1386.5677,100.461
1387.5320,100.537
1388.4962,100.566
1389.4604,100.523
1390.4247,100.413
1391.3889,100.259
1392.3531,100.089
1393.3174,99.9247
1394.2816,99.7853
1395.2458,99.7068
1396.2101,99.6523
1397.1743,99.5913
1398.1385,99.5014
1399.1028,99.3723
1400.0670,99.2065
1401.0313,99.0123
1401.9955,98.7986
1402.9597,98.5707
1403.9240,98.3301
1404.8882,98.0766
1405.8524,97.8107
1406.8167,97.5336
1407.7809,97.2452
1408.7451,96.9428
1409.7094,96.6199
1410.6736,96.2712
1411.6378,95.8974
1412.6021,95.5077
1413.5663,95.1138
1414.5305,94.7196
1415.4948,94.3158
1416.4590,93.8831
1417.4232,93.4085
1418.3875,92.9072
1419.3517,92.4195
1420.3159,91.9744
1421.2802,91.5732
1422.2444,91.208
1423.2086,90.8784
1424.1729,90.5936
1425.1371,90.3666
1426.1013,90.2123
1427.0656,90.1497
1428.0298,90.201
1428.9940,90.3782
1429.9583,90.6606
1430.9225,90.9934
1431.8867,91.321
1432.8510,91.6234
1433.8152,91.9193
1434.7794,92.2387
1435.7437,92.5783
1436.7079,92.8678
1437.6721,93.0028
1438.6364,92.9339
1439.6006,92.6886
1440.5648,92.3197
1441.5291,91.8668
1442.4933,91.3526
1443.4575,90.7905
1444.4218,90.1899
1445.3860,89.5574
1446.3502,88.9004
1447.3145,88.2357
1448.2787,87.5928
1449.2429,87.0038
1450.2072,86.4862
1451.1714,86.04
1452.1356,85.6571
1453.0999,85.3291
1454.0641,85.0499
1455.0283,84.8219
1455.9926,84.6702
1456.9568,84.6256
1457.9210,84.6427
1458.8853,84.6211
1459.8495,84.5375
1460.8137,84.4454
1461.7780,84.4262
1462.7422,84.5807
1463.7064,85.0172
1464.6707,85.7756
1465.6349,86.7415
1466.5991,87.7157
1467.5634,88.5879
1468.5276,89.3886
1469.4918,90.2297
1470.4561,91.2495
1471.4203,92.5638
1472.3845,94.1547
1473.3488,95.765
1474.3130,97.0639
1475.2772,97.9499
1476.2415,98.5298
1477.2057,98.9298
1478.1699,99.2204
1479.1342,99.4312
1480.0984,99.5771
1481.0626,99.6704
1482.0269,99.7198
1482.9911,99.7295
1483.9553,99.6297
1484.9196,99.3591
1485.8838,99.0571
1486.8480,98.7227
1487.8123,98.3537
1488.7765,97.9518
1489.7407,97.5229
1490.7050,97.0696
1491.6692,96.5942
1492.6334,96.1011
1493.5977,95.5925
1494.5619,95.0645
1495.5261,94.5126
1496.4904,93.9452
1497.4546,93.3879
1498.4188,92.8591
1499.3831,92.3526
1500.3473,91.857
1501.3115,91.3743
1502.2758,90.9094
1503.2400,90.4484
1504.2042,89.9319
1505.1685,89.2259
1506.1327,88.1626
1507.0969,86.7913
1508.0612,85.4893
1509.0254,84.4547
1509.9896,83.5827
1510.9539,82.7661
1511.9181,81.9904
1512.8823,81.3157
1513.8466,80.8541
1514.8108,80.7264
1515.7750,80.9898
1516.7393,81.5978
1517.7035,82.4662
1518.6677,83.5952
1519.6320,85.0917
1520.5962,87.0095
1521.5604,89.1533
1522.5247,91.1487
1523.4889,92.7579
1524.4531,94.0284
1525.4174,95.1404
1526.3816,96.196
1527.3458,97.155
1528.3101,97.9255
1529.2743,98.4751
1530.2385,98.8615
1531.2028,99.1937
1532.1670,99.5617
1533.1312,99.962
1534.0955,100.292
1535.0597,100.46
1536.0239,100.466
1536.9882,100.372
1537.9524,100.238
1538.9166,100.104
1539.8809,100.001
1540.8451,99.9506
1541.8093,99.9113
1542.7736,99.8224
1543.7378,99.6863
1544.7020,99.8166
1545.6663,99.917
1546.6305,99.9875
1547.5947,100.034
1548.5590,100.067
1549.5232,100.095
1550.4874,100.119
1551.4517,100.131
1552.4159,100.128
1553.3801,100.118
1554.3444,100.119
1555.3086,100.138
1556.2728,100.163
1557.2371,100.164
1558.2013,100.133
1559.1655,100.086
1560.1298,99.9918
1561.0940,99.8303
1562.0582,99.6309
1563.0225,99.429
1563.9867,99.2439
1564.9509,99.0795
1565.9152,98.9251
1566.8794,98.7548
1567.8436,98.5341
1568.8079,98.246
1569.7721,97.9156
1570.7363,97.5933
1571.7006,97.3113
1572.6648,97.0596
1573.6290,96.7868
1574.5933,96.4176
1575.5575,95.9046
1576.5217,95.2999
1577.4860,94.7252
1578.4502,94.2394
1579.4144,93.8111
1580.3787,93.3863
1581.3429,92.9305
1582.3071,92.4389
1583.2714,91.9322
1584.2356,91.4393
1585.1998,90.9775
1586.1641,90.5472
1587.1283,90.1441
1588.0925,89.7698
1589.0568,89.432
1590.0210,89.1348
1590.9852,88.8739
1591.9495,88.6396
1592.9137,88.4246
1593.8779,88.2266
1594.8422,88.0454
1595.8064,87.8788
1596.7706,87.723
1597.7349,87.5762
1598.6991,87.4418
1599.6633,87.327
1600.6276,87.2402
1601.5918,87.1878
1602.5560,87.1716
1603.5203,87.1873
1604.4845,87.226
1605.4487,87.2803
1606.4130,87.3511
1607.3772,87.4519
1608.3414,87.6026
1609.3057,87.8122
1610.2699,88.0671
1611.2341,88.3433
1612.1984,88.6343
1613.1626,88.9711
1614.1268,89.4266
1615.0911,90.0933
1616.0553,90.9915
1617.0195,91.9687
1617.9838,92.8011
1618.9480,93.4117
1619.9122,93.8847
1620.8765,94.3455
1621.8407,94.8774
1622.8049,95.4865
1623.7692,96.1028
1624.7334,96.6405
1625.6976,97.0728
1626.6619,97.4348
1627.6261,97.7677
1628.5903,98.0782
1629.5546,98.3469
1630.5188,98.5617
1631.4830,98.7333
1632.4473,98.885
1633.4115,99.0376
1634.3757,99.2082
1635.3400,99.3316
1636.3042,99.3939
1637.2684,99.4093
1638.2327,99.3488
1639.1969,99.2345
1640.1611,99.1004
1641.1254,98.969
1642.0896,98.8498
1643.0538,98.7399
1644.0181,98.6217
1644.9823,98.4702
1645.9465,98.2759
1646.9108,98.0649
1647.8750,97.8741
1648.8392,97.723
1649.8035,97.6128
1650.7677,97.5239
1651.7319,97.4127
1652.6962,97.2435
1653.6604,97.0271
1654.6246,96.7732
1655.5889,96.4799
1656.5531,96.1777
1657.5173,95.9025
1658.4816,95.6698
1659.4458,95.4749
1660.4100,95.3019
1661.3743,95.135
1662.3385,94.9645
1663.3027,94.786
1664.2670,94.6011
1665.2312,94.4162
1666.1954,94.2359
1667.1597,94.0577
1668.1239,93.8771
1669.0881,93.6987
1670.0524,93.5345
1671.0166,93.3881
1671.9808,93.2531
1672.9451,93.1246
1673.9093,92.9975
1674.8735,92.8585
1675.8378,92.6875
1676.8020,92.4721
1677.7662,92.2233
1678.7305,91.9694
1679.6947,91.7367
1680.6589,91.5326
1681.6232,91.3397
1682.5874,91.1286
1683.5516,90.8879
1684.5159,90.6279
1685.4801,90.3452
1686.4443,90.0269
1687.4086,89.6752
1688.3728,89.3042
1689.3370,88.9318
1690.3013,88.5749
1691.2655,88.2413
1692.2297,87.9226
1693.1940,87.5943
1694.1582,87.2271
1695.1224,86.8087
1696.0867,86.3642
1697.0509,85.95
1698.0151,85.6096
1698.9794,85.3277
1699.9436,85.048
1700.9078,84.7363
1701.8721,84.4067
1702.8363,84.0962
1703.8005,83.8348
1704.7648,83.6353
1705.7290,83.4959
1706.6932,83.4038
1707.6575,83.3423
1708.6217,83.2999
1709.5859,83.275
1710.5502,83.271
1711.5144,83.2903
1712.4786,83.3322
1713.4429,83.4007
1714.4071,83.5217
1715.3713,83.7567
1716.3356,84.1638
1717.2998,84.6871
1718.2640,85.1532
1719.2283,85.4593
1720.1925,85.6439
1721.1567,85.7953
1722.1210,85.9781
1723.0852,86.2147
1724.0494,86.4924
1725.0137,86.7824
1725.9779,87.0609
1726.9421,87.3195
1727.9064,87.5626
1728.8706,87.7988
1729.8348,88.0412
1730.7991,88.3146
1731.7633,88.6612
1732.7275,89.1144
1733.6918,89.6299
1734.6560,90.0796
1735.6202,90.3799
1736.5845,90.566
1737.5487,90.7291
1738.5129,90.9437
1739.4772,91.237
1740.4414,91.5865
1741.4056,91.9389
1742.3699,92.2506
1743.3341,92.5147
1744.2983,92.7513
1745.2626,92.9833
1746.2268,93.2259
1747.1910,93.493
1748.1553,93.803
1749.1195,94.1627
1750.0837,94.5365
1751.0480,94.8561
1752.0122,95.0788
1752.9764,95.2167
1753.9407,95.3138
1754.9049,95.4113
1755.8691,95.529
1756.8334,95.6642
1757.7976,95.8038
1758.7618,95.9403
1759.7261,96.0792
1760.6903,96.229
1761.6545,96.3866
1762.6188,96.5336
1763.5830,96.6522
1764.5472,96.7407
1765.5115,96.8132
1766.4757,96.8861
1767.4399,96.9677
1768.4042,97.0574
1769.3684,97.1548
1770.3326,97.2704
1771.2969,97.4234
1772.2611,97.6163
1773.2253,97.8154
1774.1896,97.9779
1775.1538,98.0931
1776.1180,98.1834
1777.0823,98.2786
1778.0465,98.3962
1779.0107,98.5352
1779.9750,98.6801
1780.9392,98.8129
1781.9034,98.9249
1782.8677,99.0179
1783.8319,99.0951
1784.7961,99.1549
1785.7604,99.1924
1786.7246,99.208
1787.6888,99.2103
1788.6531,99.2119
1789.6173,99.2219
1790.5815,99.2436
1791.5458,99.2751
1792.5100,99.3059
1793.4742,99.3181
1794.4385,99.3031
1795.4027,99.2713
1796.3669,99.2406
1797.3312,99.2233
1798.2954,99.2616
1799.2596,99.3334
1800.2239,99.4074
1801.1881,99.4767
1802.1523,99.5363
1803.1166,99.5849
1804.0808,99.6241
1805.0450,99.6569
1806.0093,99.6856
1806.9735,99.7117
1807.9377,99.737
1808.9020,99.7647
1809.8662,99.7986
1810.8304,99.8397
1811.7947,99.8845
1812.7589,99.9274
1813.7231,99.9652
1814.6874,99.9977
1815.6516,100.026
1816.6158,100.051
1817.5801,100.073
1818.5443,100.092
1819.5085,100.109
1820.4728,100.127
1821.4370,100.149
1822.4012,100.174
1823.3655,100.2
1824.3297,100.223
1825.2939,100.238
1826.2582,100.247
1827.2224,100.252
1828.1866,100.258
1829.1509,100.272
1830.1151,100.291
1831.0793,100.307
1832.0436,100.314
1833.0078,100.312
1833.9720,100.31
1834.9363,100.311
1835.9005,100.317
1836.8647,100.323
1837.8290,100.328
1838.7932,100.332
1839.7574,100.343
1840.7217,100.365
1841.6859,100.396
1842.6501,100.427
1843.6144,100.449
1844.5786,100.459
1845.5428,100.454
1846.5071,100.44
1847.4713,100.424
1848.4355,100.417
1849.3998,100.42
1850.3640,100.43
1851.3282,100.44
1852.2925,100.445
1853.2567,100.444
1854.2209,100.441
1855.1852,100.439
1856.1494,100.439
1857.1136,100.441
1858.0779,100.444
1859.0421,100.448
1860.0063,100.451
1860.9706,100.451
1861.9348,100.445
1862.8990,100.434
1863.8633,100.419
1864.8275,100.406
1865.7917,100.398
1866.7560,100.402
1867.7202,100.422
1868.6844,100.458
1869.6487,100.494
1870.6129,100.516
1871.5771,100.518
1872.5414,100.509
1873.5056,100.499
1874.4698,100.492
1875.4341,100.489
1876.3983,100.488
1877.3625,100.488
1878.3268,100.489
1879.2910,100.491
1880.2552,100.495
1881.2195,100.5
1882.1837,100.502
1883.1479,100.499
1884.1122,100.493
1885.0764,100.486
1886.0406,100.481
1887.0049,100.482
1887.9691,100.488
1888.9333,100.495
1889.8976,100.5
1890.8618,100.497
1891.8260,100.487
1892.7903,100.474
1893.7545,100.466
1894.7188,100.465
1895.6830,100.471
1896.6472,100.481
1897.6115,100.49
1898.5757,100.494
1899.5399,100.493
1900.5042,100.488
1901.4684,100.483
1902.4326,100.478
1903.3969,100.472
1904.3611,100.465
1905.3253,100.455
1906.2896,100.443
1907.2538,100.431
1908.2180,100.424
1909.1823,100.423
1910.1465,100.427
1911.1107,100.432
1912.0750,100.435
1913.0392,100.438
1914.0034,100.44
1914.9677,100.444
1915.9319,100.45
1916.8961,100.452
1917.8604,100.449
1918.8246,100.436
1919.7888,100.415
1920.7531,100.394
1921.7173,100.379
1922.6815,100.374
1923.6458,100.377
1924.6100,100.383
1925.5742,100.384
1926.5385,100.38
1927.5027,100.373
1928.4669,100.365
1929.4312,100.36
1930.3954,100.356
1931.3596,100.353
1932.3239,100.349
1933.2881,100.343
1934.2523,100.336
1935.2166,100.329
1936.1808,100.322
1937.1450,100.315
1938.1093,100.308
1939.0735,100.301
1940.0377,100.294
1941.0020,100.288
1941.9662,100.283
1942.9304,100.28
1943.8947,100.276
1944.8589,100.271
1945.8231,100.267
1946.7874,100.264
1947.7516,100.264
1948.7158,100.267
1949.6801,100.269
1950.6443,100.269
1951.6085,100.268
1952.5728,100.265
1953.5370,100.263
1954.5012,100.262
1955.4655,100.261
1956.4297,100.26
1957.3939,100.259
1958.3582,100.258
1959.3224,100.257
1960.2866,100.256
1961.2509,100.255
1962.2151,100.253
1963.1793,100.25
1964.1436,100.248
1965.1078,100.249
1966.0720,100.254
1967.0363,100.263
1968.0005,100.273
1968.9647,100.282
1969.9290,100.288
1970.8932,100.29
1971.8574,100.289
1972.8217,100.288
1973.7859,100.285
1974.7501,100.283
1975.7144,100.281
1976.6786,100.279
1977.6428,100.277
1978.6071,100.275
1979.5713,100.272
1980.5355,100.269
1981.4998,100.266
1982.4640,100.264
1983.4282,100.262
1984.3925,100.261
1985.3567,100.26
1986.3209,100.256
1987.2852,100.25
1988.2494,100.244
1989.2136,100.239
1990.1779,100.236
1991.1421,100.237
1992.1063,100.24
1993.0706,100.243
1994.0348,100.244
1994.9990,100.243
1995.9633,100.239
1996.9275,100.235
1997.8917,100.231
1998.8560,100.229
1999.8202,100.226
2000.7844,100.224
2001.7487,100.219
2002.7129,100.213
2003.6771,100.203
2004.6414,100.19
2005.6056,100.176
2006.5698,100.163
2007.5341,100.152
2008.4983,100.147
2009.4625,100.145
2010.4268,100.146
2011.3910,100.145
2012.3552,100.141
2013.3195,100.133
2014.2837,100.123
2015.2479,100.111
2016.2122,100.103
2017.1764,100.098
2018.1406,100.097
2019.1049,100.098
2020.0691,100.097
2021.0333,100.095
2021.9976,100.092
2022.9618,100.089
2023.9260,100.086
2024.8903,100.083
2025.8545,100.08
2026.8187,100.075
2027.7830,100.067
2028.7472,100.056
2029.7114,100.045
2030.6757,100.035
2031.6399,100.027
2032.6041,100.02
2033.5684,100.016
2034.5326,100.012
2035.4968,100.01
2036.4611,100.009
2037.4253,100.007
2038.3895,100.005
2039.3538,100.001
2040.3180,99.9956
2041.2822,99.9896
2042.2465,99.9837
2043.2107,99.9786
2044.1749,99.9739
2045.1392,99.9693
2046.1034,99.9642
2047.0676,99.9591
2048.0320,99.9542
2048.9961,99.9501
2049.9604,99.9466
2050.9246,99.9429
2051.8889,99.9381
2052.8530,99.9315
2053.8174,99.9233
2054.7815,99.9146
2055.7458,99.9063
2056.7100,99.8995
2057.6743,99.8939
2058.6384,99.8887
2059.6028,99.883
2060.5669,99.8767
2061.5313,99.8707
2062.4954,99.8667
2063.4597,99.8661
2064.4238,99.8691
2065.3882,99.8747
2066.3523,99.8809
2067.3167,99.8862
2068.2808,99.8902
2069.2451,99.893
2070.2092,99.8954
2071.1736,99.8976
2072.1377,99.8996
2073.1021,99.9013
2074.0662,99.9026
2075.0305,99.9037
2075.9946,99.9044
2076.9590,99.9045
2077.9231,99.904
2078.8875,99.9032
2079.8516,99.9024
2080.8159,99.9022
2081.7800,99.9025
2082.7444,99.9031
2083.7085,99.9039
2084.6729,99.9055
2085.6370,99.9087
2086.6013,99.9137
2087.5654,99.9198
2088.5298,99.9249
2089.4939,99.9272
2090.4583,99.9256
2091.4224,99.9211
2092.3867,99.9164
2093.3508,99.914
2094.3152,99.9152
2095.2793,99.9196
2096.2437,99.9252
2097.2078,99.93
2098.1721,99.9326
2099.1362,99.9331
2100.1006,99.932
2101.0647,99.9309
2102.0291,99.93
2102.9932,99.929
2103.9575,99.9275
2104.9216,99.9252
2105.8860,99.9219
2106.8501,99.9182
2107.8145,99.9146
2108.7786,99.9116
2109.7429,99.9094
2110.7070,99.9082
2111.6714,99.9079
2112.6355,99.9082
2113.5999,99.9093
2114.5640,99.9108
2115.5283,99.9124
2116.4924,99.9136
2117.4568,99.9134
2118.4209,99.9115
2119.3853,99.9075
2120.3494,99.9019
2121.3137,99.8956
2122.2778,99.8897
2123.2422,99.8854
2124.2063,99.8832
2125.1707,99.8835
2126.1348,99.8861
2127.0991,99.8905
2128.0632,99.8959
2129.0276,99.9008
2129.9917,99.9037
2130.9561,99.9033
2131.9202,99.8992
2132.8845,99.8922
2133.8486,99.8844
2134.8130,99.8783
2135.7771,99.8755
2136.7415,99.8765
2137.7056,99.8801
2138.6699,99.8846
2139.6340,99.8882
2140.5984,99.8905
2141.5625,99.892
2142.5269,99.8939
2143.4910,99.897
2144.4553,99.9015
2145.4194,99.9065
2146.3838,99.9105
2147.3479,99.9122
2148.3123,99.9112
2149.2764,99.9078
2150.2407,99.903
2151.2048,99.8982
2152.1692,99.8944
2153.1333,99.8927
2154.0977,99.8935
2155.0618,99.8968
2156.0261,99.9024
2156.9902,99.9094
2157.9546,99.9166
2158.9187,99.9232
2159.8831,99.9289
2160.8472,99.934
2161.8115,99.9388
2162.7756,99.9436
2163.7400,99.9479
2164.7041,99.9511
2165.6685,99.9525
2166.6326,99.9521
2167.5969,99.9505
2168.5610,99.9489
2169.5254,99.9487
2170.4895,99.9506
2171.4539,99.9545
2172.4180,99.9596
2173.3823,99.9644
2174.3464,99.9674
2175.3108,99.968
2176.2749,99.9666
2177.2393,99.9646
2178.2034,99.9634
2179.1677,99.9634
2180.1318,99.9641
2181.0962,99.964
2182.0603,99.962
2183.0247,99.9578
2183.9888,99.953
2184.9531,99.9496
2185.9172,99.9494
2186.8816,99.953
2187.8457,99.9596
2188.8101,99.9671
2189.7742,99.9735
2190.7385,99.9774
2191.7026,99.9784
2192.6670,99.9773
2193.6311,99.9752
2194.5955,99.9733
2195.5596,99.9724
2196.5239,99.9722
2197.4880,99.9717
2198.4524,99.9698
2199.4165,99.9658
2200.3809,99.9603
2201.3450,99.9545
2202.3093,99.9498
2203.2734,99.9468
2204.2378,99.9452
2205.2019,99.9439
2206.1663,99.9422
2207.1304,99.9402
2208.0947,99.9383
2209.0588,99.937
2210.0232,99.9357
2210.9873,99.9333
2211.9517,99.9289
2212.9158,99.9226
2213.8801,99.9157
2214.8442,99.9099
2215.8086,99.9064
2216.7727,99.9046
2217.7371,99.9032
2218.7012,99.9005
2219.6655,99.8959
2220.6296,99.8899
2221.5940,99.8841
2222.5581,99.8798
2223.5225,99.8772
2224.4866,99.8758
2225.4509,99.8743
2226.4150,99.8717
2227.3794,99.8675
2228.3435,99.8615
2229.3079,99.8538
2230.2720,99.8448
2231.2363,99.8355
2232.2004,99.8267
2233.1648,99.8195
2234.1289,99.8145
2235.0933,99.8116
2236.0574,99.81
2237.0217,99.8089
2237.9858,99.8074
2238.9502,99.805
2239.9143,99.8014
2240.8787,99.7964
2241.8428,99.7899
2242.8071,99.7823
2243.7712,99.7743
2244.7356,99.7672
2245.6997,99.7618
2246.6641,99.7582
2247.6282,99.7556
2248.5925,99.7523
2249.5566,99.7469
2250.5210,99.7385
2251.4851,99.7273
2252.4495,99.7143
2253.4136,99.7006
2254.3779,99.6872
2255.3420,99.6747
2256.3064,99.6634
2257.2705,99.6534
2258.2349,99.6451
2259.1990,99.6383
2260.1633,99.6324
2261.1274,99.6264
2262.0918,99.6195
2263.0559,99.6115
2264.0203,99.6032
2264.9844,99.5956
2265.9487,99.5894
2266.9128,99.5841
2267.8772,99.5782
2268.8413,99.5703
2269.8057,99.5603
2270.7698,99.5499
2271.7341,99.5413
2272.6982,99.5363
2273.6626,99.5349
2274.6267,99.5351
2275.5911,99.5347
2276.5552,99.5324
2277.5195,99.5282
2278.4836,99.5234
2279.4480,99.5191
2280.4121,99.5154
2281.3765,99.5115
2282.3406,99.506
2283.3049,99.4974
2284.2690,99.4852
2285.2334,99.4692
2286.1975,99.4501
2287.1619,99.4288
2288.1260,99.4063
2289.0903,99.383
2290.0544,99.3593
2291.0188,99.3355
2291.9829,99.312
2292.9473,99.2902
2293.9114,99.2714
2294.8757,99.2567
2295.8398,99.2465
2296.8042,99.2402
2297.7683,99.2375
2298.7327,99.2391
2299.6968,99.2467
2300.6611,99.2619
2301.6252,99.2847
2302.5896,99.3124
2303.5537,99.3395
2304.5181,99.3599
2305.4822,99.3697
2306.4465,99.3698
2307.4106,99.3663
2308.3750,99.3682
2309.3391,99.3834
2310.3035,99.4143
2311.2676,99.4565
2312.2319,99.5013
2313.1960,99.5404
2314.1604,99.5709
2315.1245,99.5962
2316.0889,99.6231
2317.0530,99.6575
2318.0173,99.6994
2318.9814,99.7409
2319.9458,99.7668
2320.9099,99.7596
2321.8743,99.7069
2322.8384,99.6099
2323.8027,99.4861
2324.7668,99.3651
2325.7312,99.2769
2326.6953,99.241
2327.6597,99.2578
2328.6238,99.3078
2329.5881,99.3575
2330.5522,99.373
2331.5166,99.3348
2332.4807,99.2463
2333.4451,99.1304
2334.4092,99.0171
2335.3735,98.9297
2336.3376,98.8758
2337.3020,98.8459
2338.2661,98.8191
2339.2305,98.7765
2340.1946,98.7169
2341.1589,98.6689
2342.1230,98.6855
2343.0874,98.8039
2344.0515,98.9812
2345.0159,99.1023
2345.9800,99.0885
2346.9443,98.9667
2347.9084,98.8263
2348.8728,98.7465
2349.8369,98.7552
2350.8013,98.8242
2351.7654,98.8878
2352.7297,98.8833
2353.6938,98.7961
2354.6582,98.6644
2355.6223,98.5305
2356.5867,98.403
2357.5508,98.2743
2358.5151,98.1525
2359.4792,98.0616
2360.4436,98.0197
2361.4077,98.0282
2362.3721,98.0841
2363.3362,98.1884
2364.3005,98.3395
2365.2646,98.5235
2366.2290,98.717
2367.1931,98.8984
2368.1575,99.0561
2369.1216,99.188
2370.0859,99.2963
2371.0500,99.3835
2372.0144,99.4497
2372.9785,99.4917
2373.9429,99.5125
2374.9070,99.5069
2375.8713,99.4648
2376.8354,99.391
2377.7998,99.2962
2378.7639,99.194
2379.7283,99.0977
2380.6924,99.0164
2381.6567,98.9552
2382.6208,98.9146
2383.5852,98.8923
2384.5493,98.8844
2385.5137,98.886
2386.4778,98.8927
2387.4421,98.9006
2388.4063,98.9071
2389.3706,98.9112
2390.3347,98.9131
2391.2991,98.9143
2392.2632,98.9165
2393.2275,98.9207
2394.1917,98.927
2395.1560,98.9347
2396.1201,98.9429
2397.0845,98.9511
2398.0486,98.9592
2399.0129,98.9669
2399.9771,98.9736
2400.9414,98.9778
2401.9055,98.9781
2402.8699,98.9746
2403.8340,98.9693
2404.7983,98.9657
2405.7625,98.9669
2406.7268,98.9738
2407.6909,98.9847
2408.6553,98.9958
2409.6194,99.0035
2410.5837,99.0064
2411.5479,99.0051
2412.5122,99.002
2413.4763,98.9988
2414.4407,98.9964
2415.4048,98.9949
2416.3691,98.9943
2417.3333,98.995
2418.2976,98.998
2419.2617,99.0032
2420.2261,99.0093
2421.1902,99.0142
2422.1545,99.0161
2423.1187,99.0149
2424.0830,99.012
2425.0471,99.0101
2426.0115,99.0108
2426.9756,99.0143
2427.9399,99.0192
2428.9041,99.0241
2429.8684,99.0281
2430.8325,99.0311
2431.7969,99.0339
2432.7610,99.0366
2433.7253,99.0389
2434.6895,99.0404
2435.6538,99.0405
2436.6179,99.0399
2437.5823,99.0394
2438.5464,99.0403
2439.5107,99.0431
2440.4749,99.0476
2441.4392,99.053
2442.4033,99.0582
2443.3677,99.0622
2444.3318,99.0647
2445.2961,99.0657
2446.2603,99.0656
2447.2246,99.0649
2448.1887,99.0634
2449.1531,99.061
2450.1172,99.0575
2451.0815,99.0533
2452.0457,99.0495
2453.0100,99.0475
2453.9741,99.0479
2454.9385,99.0504
2455.9026,99.0539
2456.8669,99.057
2457.8311,99.059
2458.7954,99.0597
2459.7595,99.0593
2460.7239,99.0581
2461.6880,99.056
2462.6523,99.0533
2463.6165,99.0504
2464.5808,99.0482
2465.5449,99.0473
2466.5093,99.0476
2467.4734,99.048
2468.4377,99.0469
2469.4019,99.0435
2470.3662,99.0381
2471.3303,99.0324
2472.2947,99.0287
2473.2588,99.0286
2474.2231,99.0319
2475.1873,99.0368
2476.1516,99.0409
2477.1157,99.0422
2478.0801,99.0402
2479.0442,99.036
2480.0085,99.0316
2480.9727,99.0285
2481.9370,99.0275
2482.9011,99.0279
2483.8655,99.0288
2484.8296,99.0294
2485.7939,99.0294
2486.7581,99.0292
2487.7224,99.0289
2488.6865,99.0286
2489.6509,99.0277
2490.6150,99.026
2491.5793,99.0235
2492.5435,99.0208
2493.5078,99.0189
2494.4719,99.0188
2495.4363,99.0212
2496.4004,99.0261
2497.3647,99.0327
2498.3289,99.0397
2499.2932,99.0452
2500.2573,99.048
2501.2217,99.048
2502.1858,99.0462
2503.1501,99.0442
2504.1143,99.0434
2505.0786,99.0439
2506.0427,99.0447
2507.0071,99.0441
2507.9712,99.0409
2508.9355,99.0351
2509.8997,99.0276
2510.8640,99.02
2511.8281,99.0138
2512.7925,99.0102
2513.7566,99.0105
2514.7209,99.0157
2515.6851,99.026
2516.6494,99.0398
2517.6135,99.0541
2518.5779,99.0651
2519.5420,99.0701
2520.5063,99.0692
2521.4705,99.0648
2522.4348,99.0604
2523.3989,99.0585
2524.3633,99.0596
2525.3274,99.062
2526.2917,99.0638
2527.2559,99.0642
2528.2202,99.0635
2529.1843,99.0629
2530.1487,99.063
2531.1128,99.0633
2532.0771,99.0628
2533.0413,99.0607
2534.0056,99.0574
2534.9697,99.054
2535.9341,99.0519
2536.8982,99.0518
2537.8625,99.0536
2538.8267,99.0566
2539.7910,99.06
2540.7551,99.0631
2541.7195,99.0661
2542.6836,99.0694
2543.6479,99.0738
2544.6121,99.0796
2545.5764,99.0865
2546.5405,99.0937
2547.5049,99.0998
2548.4690,99.1042
2549.4333,99.1068
2550.3975,99.1085
2551.3618,99.1103
2552.3259,99.1131
2553.2903,99.1169
2554.2544,99.1212
2555.2188,99.1254
2556.1829,99.1293
2557.1472,99.1332
2558.1113,99.1373
2559.0757,99.1415
2560.0398,99.145
2561.0042,99.1467
2561.9683,99.1464
2562.9326,99.1447
2563.8967,99.1432
2564.8611,99.1436
2565.8252,99.1468
2566.7896,99.1523
2567.7537,99.1585
2568.7180,99.1631
2569.6821,99.1645
2570.6465,99.1624
2571.6106,99.1578
2572.5750,99.1523
2573.5391,99.1478
2574.5034,99.1453
2575.4675,99.1452
2576.4319,99.1472
2577.3960,99.1509
2578.3604,99.1558
2579.3245,99.1614
2580.2888,99.1669
2581.2529,99.1719
2582.2173,99.1756
2583.1814,99.1778
2584.1458,99.1784
2585.1099,99.1776
2586.0742,99.1761
2587.0383,99.1741
2588.0027,99.1719
2588.9668,99.1693
2589.9312,99.1661
2590.8953,99.1624
2591.8596,99.1583
2592.8237,99.154
2593.7881,99.1496
2594.7522,99.1453
2595.7166,99.1414
2596.6807,99.1383
2597.6450,99.137
2598.6091,99.138
2599.5735,99.1417
2600.5376,99.1471
2601.5020,99.1529
2602.4661,99.1574
2603.4304,99.1594
2604.3945,99.1587
2605.3589,99.1563
2606.3230,99.1535
2607.2874,99.1521
2608.2515,99.153
2609.2158,99.1564
2610.1799,99.1612
2611.1443,99.166
2612.1084,99.169
2613.0728,99.1697
2614.0369,99.1683
2615.0012,99.1664
2615.9653,99.1655
2616.9297,99.1664
2617.8938,99.1687
2618.8582,99.1713
2619.8223,99.1729
2620.7866,99.1728
2621.7507,99.1713
2622.7151,99.1692
2623.6792,99.1675
2624.6436,99.1665
2625.6077,99.1661
2626.5720,99.1655
2627.5361,99.1642
2628.5005,99.162
2629.4646,99.1591
2630.4290,99.1563
2631.3931,99.1544
2632.3574,99.1538
2633.3215,99.1545
2634.2859,99.1558
2635.2500,99.1573
2636.2144,99.1588
2637.1785,99.1609
2638.1428,99.1644
2639.1069,99.1704
2640.0713,99.1789
2641.0354,99.1891
2641.9998,99.1991
2642.9639,99.2069
2643.9282,99.2112
2644.8923,99.2116
2645.8567,99.209
2646.8208,99.205
2647.7852,99.2012
2648.7493,99.1988
2649.7136,99.1985
2650.6777,99.2006
2651.6421,99.2055
2652.6062,99.2135
2653.5706,99.2244
2654.5347,99.2376
2655.4990,99.2515
2656.4631,99.2638
2657.4275,99.2725
2658.3916,99.2765
2659.3560,99.2764
2660.3201,99.2745
2661.2844,99.2736
2662.2485,99.2765
2663.2129,99.2847
2664.1770,99.2978
2665.1414,99.3138
2666.1055,99.3302
2667.0698,99.3448
2668.0339,99.3568
2668.9983,99.3669
2669.9624,99.3768
2670.9268,99.3881
2671.8909,99.4011
2672.8552,99.4152
2673.8193,99.4284
2674.7837,99.4393
2675.7478,99.4467
2676.7122,99.4508
2677.6763,99.4523
2678.6406,99.4522
2679.6047,99.4516
2680.5691,99.4516
2681.5332,99.453
2682.4976,99.4564
2683.4617,99.4614
2684.4260,99.467
2685.3901,99.4717
2686.3545,99.4743
2687.3186,99.4746
2688.2830,99.4739
2689.2471,99.474
2690.2114,99.4767
2691.1755,99.4824
2692.1399,99.4901
2693.1040,99.4978
2694.0684,99.5037
2695.0325,99.5068
2695.9968,99.5072
2696.9609,99.5063
2697.9253,99.5053
2698.8894,99.5051
2699.8538,99.5056
2700.8179,99.506
2701.7822,99.5056
2702.7463,99.5035
2703.7107,99.4997
2704.6748,99.4941
2705.6392,99.487
2706.6033,99.4789
2707.5676,99.4703
2708.5317,99.462
2709.4961,99.4548
2710.4602,99.4488
2711.4246,99.4435
2712.3887,99.4376
2713.3530,99.4432
2714.3171,99.4539
2715.2815,99.4629
2716.2456,99.4722
2717.2100,99.4834
2718.1741,99.4977
2719.1384,99.5149
2720.1025,99.5335
2721.0669,99.5519
2722.0310,99.5689
2722.9954,99.5839
2723.9595,99.597
2724.9238,99.6086
2725.8879,99.6193
2726.8523,99.63
2727.8164,99.6417
2728.7808,99.6554
2729.7449,99.6718
2730.7092,99.6906
2731.6733,99.7108
2732.6377,99.7308
2733.6018,99.7491
2734.5662,99.7647
2735.5303,99.7777
2736.4946,99.7887
2737.4587,99.7989
2738.4231,99.8097
2739.3872,99.8217
2740.3516,99.8358
2741.3157,99.8525
2742.2800,99.8722
2743.2441,99.8955
2744.2085,99.9221
2745.1726,99.9509
2746.1370,99.9797
2747.1011,100.005
2748.0654,100.025
2749.0295,100.039
2749.9939,100.048
2750.9580,100.056
2751.9224,100.068
2752.8865,100.086
2753.8508,100.109
2754.8149,100.132
2755.7793,100.153
2756.7434,100.166
2757.7078,100.173
2758.6719,100.176
2759.6362,100.177
2760.6003,100.18
2761.5647,100.186
2762.5288,100.196
2763.4932,100.208
2764.4573,100.22
2765.4216,100.23
2766.3857,100.239
2767.3501,100.247
2768.3142,100.255
2769.2786,100.266
2770.2427,100.278
2771.2070,100.288
2772.1711,100.294
2773.1355,100.293
2774.0996,100.287
2775.0640,100.279
2776.0281,100.272
2776.9924,100.27
2777.9565,100.269
2778.9209,100.267
2779.8850,100.259
2780.8494,100.245
2781.8135,100.227
2782.7778,100.208
2783.7419,100.194
2784.7063,100.187
2785.6704,100.183
2786.6348,100.181
2787.5989,100.175
2788.5632,100.164
2789.5273,100.147
2790.4917,100.126
2791.4558,100.104
2792.4202,100.083
2793.3843,100.064
2794.3486,100.045
2795.3127,100.025
2796.2771,100.002
2797.2412,99.9781
2798.2056,99.9528
2799.1697,99.9272
2800.1340,99.9004
2801.0981,99.8708
2802.0625,99.837
2803.0266,99.7989
2803.9910,99.7581
2804.9551,99.7168
2805.9194,99.6764
2806.8835,99.6359
2807.8479,99.5927
2808.8120,99.5438
2809.7764,99.4872
2810.7405,99.4233
2811.7048,99.3546
2812.6689,99.2838
2813.6333,99.2127
2814.5974,99.1415
2815.5618,99.066
2816.5259,98.961
2817.4902,98.8478
2818.4543,98.7231
2819.4187,98.5849
2820.3828,98.4318
2821.3472,98.2633
2822.3113,98.0796
2823.2756,97.8813
2824.2397,97.6697
2825.2041,97.4464
2826.1682,97.2129
2827.1326,96.9698
2828.0967,96.7168
2829.0610,96.4524
2830.0251,96.1752
2830.9895,95.8851
2831.9536,95.5844
2832.9180,95.2771
2833.8821,94.9681
2834.8464,94.6612
2835.8105,94.3587
2836.7749,94.0616
2837.7390,93.7707
2838.7034,93.488
2839.6675,93.2165
2840.6318,92.9587
2841.5959,92.7143
2842.5603,92.4797
2843.5244,92.2483
2844.4888,92.0142
2845.4529,91.776
2846.4172,91.5396
2847.3813,91.317
2848.3457,91.1227
2849.3098,90.9668
2850.2742,90.8511
2851.2383,90.7683
2852.2026,90.7058
2853.1667,90.6514
2854.1311,90.5981
2855.0952,90.545
2856.0596,90.4949
2857.0237,90.4505
2857.9880,90.4114
2858.9521,90.3739
2859.9165,90.3334
2860.8806,90.2863
2861.8450,90.2315
2862.8091,90.1701
2863.7734,90.1037
2864.7375,90.0338
2865.7019,89.9605
2866.6660,89.8834
2867.6304,89.8015
2868.5945,89.7143
2869.5588,89.6214
2870.5229,89.5237
2871.4873,89.4225
2872.4514,89.3209
2873.4158,89.2221
2874.3799,89.1296
2875.3442,89.0458
2876.3083,88.9714
2877.2727,88.9053
2878.2368,88.8456
2879.2012,88.7909
2880.1653,88.741
2881.1296,88.6975
2882.0938,88.6632
2883.0581,88.6411
2884.0222,88.6324
2884.9866,88.6362
2885.9507,88.6491
2886.9150,88.6664
2887.8792,88.6834
2888.8435,88.6969
2889.8076,88.7056
2890.7720,88.7098
2891.7361,88.7102
2892.7004,88.7072
2893.6646,88.6988
2894.6289,88.6815
2895.5930,88.6503
2896.5574,88.6014
2897.5215,88.5337
2898.4858,88.4499
2899.4500,88.3555
2900.4143,88.2569
2901.3784,88.1586
2902.3428,88.0617
2903.3069,87.9634
2904.2712,87.8591
2905.2354,87.7434
2906.1997,87.6124
2907.1638,87.4636
2908.1282,87.2962
2909.0923,87.1099
2910.0566,86.9051
2911.0208,86.6828
2911.9851,86.446
2912.9492,86.1996
2913.9136,85.9508
2914.8777,85.7077
2915.8420,85.4771
2916.8062,85.2627
2917.7705,85.064
2918.7346,84.8773
2919.6990,84.6978
2920.6631,84.5218
2921.6274,84.3484
2922.5916,84.1791
2923.5559,84.0168
2924.5200,83.864
2925.4844,83.7216
2926.4485,83.5897
2927.4128,83.4684
2928.3770,83.3591
2929.3413,83.2652
2930.3054,83.1915
2931.2698,83.1431
2932.2339,83.1246
2933.1982,83.139
2934.1624,83.1883
2935.1267,83.2734
2936.0908,83.3948
2937.0552,83.5518
2938.0193,83.7423
2938.9836,83.9627
2939.9478,84.2086
2940.9121,84.4757
2941.8762,84.7607
2942.8406,85.0609
2943.8047,85.3733
2944.7690,85.6933
2945.7332,86.0148
2946.6975,86.3313
2947.6616,86.6374
2948.6260,86.9306
2949.5901,87.211
2950.5544,87.4799
2951.5186,87.7386
2952.4829,87.9875
2953.4470,88.2267
2954.4114,88.4569
2955.3755,88.6805
2956.3398,88.9013
2957.3040,89.123
2958.2683,89.3476
2959.2324,89.5743
2960.1968,89.8004
2961.1609,90.0233
2962.1252,90.2419
2963.0894,90.4578
2964.0537,90.6738
2965.0178,90.8923
2965.9822,91.1139
2966.9463,91.3373
2967.9106,91.561
2968.8748,91.7839
2969.8391,92.0061
2970.8032,92.2283
2971.7676,92.451
2972.7317,92.675
2973.6960,92.9011
2974.6602,93.1311
2975.6245,93.3663
2976.5886,93.6068
2977.5530,93.8499
2978.5171,94.0907
2979.4814,94.3239
2980.4456,94.5456
2981.4099,94.7544
2982.3740,94.951
2983.3384,95.1373
2984.3025,95.3156
2985.2668,95.4893
2986.2310,95.6625
2987.1953,95.8396
2988.1594,96.0228
2989.1238,96.2104
2990.0879,96.3968
2991.0522,96.5741
2992.0164,96.7353
2992.9807,96.877
2993.9448,97.0002
2994.9092,97.1088
2995.8733,97.2078
2996.8376,97.3018
2997.8018,97.3941
2998.7661,97.4863
2999.7302,97.5789
3000.6946,97.6721
3001.6587,97.7663
3002.6230,97.8633
3003.5872,97.9662
3004.5515,98.0775
3005.5156,98.1969
3006.4800,98.3206
3007.4441,98.4419
3008.4084,98.5547
3009.3726,98.6569
3010.3369,98.7515
3011.3010,98.8452
3012.2654,98.9438
3013.2295,99.0484
3014.1938,99.1542
3015.1580,99.2533
3016.1223,99.3387
3017.0864,99.4082
3018.0508,99.4649
3019.0149,99.5149
3019.9792,99.5636
3020.9434,99.6132
3021.9077,99.6628
3022.8718,99.7094
3023.8362,99.7513
3024.8003,99.7887
3025.7646,99.8237
3026.7288,99.8589
3027.6931,99.8952
3028.6572,99.9316
3029.6216,99.9395
3030.5857,99.9387
3031.5500,99.929
3032.5142,99.9107
3033.4785,99.8863
3034.4426,99.8599
3035.4070,99.8353
3036.3711,99.8144
3037.3354,99.7965
3038.2996,99.7789
3039.2639,99.7575
3040.2280,99.7288
3041.1924,99.6908
3042.1565,99.6441
3043.1208,99.5906
3044.0850,99.5335
3045.0493,99.4757
3046.0134,99.4188
3046.9778,99.3627
3047.9419,99.3061
3048.9063,99.2468
3049.8704,99.1835
3050.8347,99.116
3051.7988,99.0457
3052.7632,98.9747
3053.7273,98.9051
3054.6917,98.8385
3055.6558,98.7756
3056.6201,98.7164
3057.5842,98.66
3058.5486,98.6041
3059.5127,98.5454
3060.4771,98.4806
3061.4412,98.4082
3062.4055,98.33
3063.3696,98.2505
3064.3340,98.1753
3065.2981,98.1079
3066.2625,98.0479
3067.2266,97.9917
3068.1909,97.9353
3069.1550,97.8766
3070.1194,97.8161
3071.0835,97.7553
3072.0479,97.6945
3073.0120,97.6322
3073.9763,97.5658
3074.9404,97.4944
3075.9048,97.4201
3076.8689,97.3473
3077.8333,97.2804
3078.7974,97.221
3079.7617,97.167
3080.7258,97.1135
3081.6902,97.0555
3082.6543,96.9904
3083.6187,96.9186
3084.5828,96.8428
3085.5471,96.7664
3086.5112,96.6923
3087.4756,96.6223
3088.4397,96.557
3089.4041,96.4952
3090.3682,96.4346
3091.3325,96.3712
3092.2966,96.3012
3093.2610,96.2217
3094.2251,96.1326
3095.1895,96.0366
3096.1536,95.9386
3097.1179,95.8432
3098.0820,95.7534
3099.0464,95.6691
3100.0105,95.5879
3100.9749,95.5067
3101.9390,95.4233
3102.9033,95.3379
3103.8674,95.2523
3104.8318,95.169
3105.7959,95.0888
3106.7603,95.0097
3107.7244,94.9279
3108.6887,94.8393
3109.6528,94.7424
3110.6172,94.639
3111.5813,94.5341
3112.5457,94.4327
3113.5098,94.337
3114.4741,94.2461
3115.4382,94.1563
3116.4026,94.0649
3117.3667,93.9723
3118.3311,93.882
3119.2952,93.7986
3120.2595,93.7243
3121.2236,93.6568
3122.1880,93.5898
3123.1521,93.5162
3124.1165,93.4314
3125.0806,93.3356
3126.0449,93.2324
3127.0090,93.1268
3127.9734,93.0228
3128.9375,92.9219
3129.9019,92.8244
3130.8660,92.7301
3131.8303,92.6389
3132.7944,92.5509
3133.7588,92.4651
3134.7229,92.3794
3135.6873,92.2913
3136.6514,92.1992
3137.6157,92.1038
3138.5798,92.0074
3139.5442,91.913
3140.5083,91.8224
3141.4727,91.7349
3142.4368,91.6475
3143.4011,91.5559
3144.3652,91.4565
3145.3296,91.3487
3146.2937,91.2359
3147.2581,91.1239
3148.2222,91.0188
3149.1865,90.924
3150.1506,90.8384
3151.1150,90.7565
3152.0791,90.6717
3153.0435,90.5794
3154.0076,90.4786
3154.9719,90.3716
3155.9360,90.2614
3156.9004,90.1509
3157.8645,90.0414
3158.8289,89.9342
3159.7930,89.8311
3160.7573,89.7337
3161.7214,89.6421
3162.6858,89.5539
3163.6499,89.4646
3164.6143,89.3705
3165.5784,89.2707
3166.5427,89.1678
3167.5068,89.0658
3168.4712,88.9672
3169.4353,88.8842
3170.3997,88.7859
3171.3638,88.6823
3172.3281,88.5726
3173.2922,88.4602
3174.2566,88.3499
3175.2207,88.2456
3176.1851,88.1478
3177.1492,88.0541
3178.1135,87.9604
3179.0776,87.8638
3180.0420,87.7637
3181.0061,87.6614
3181.9705,87.5589
3182.9346,87.4582
3183.8989,87.3599
3184.8630,87.2634
3185.8274,87.1669
3186.7915,87.0688
3187.7559,86.9684
3188.7200,86.8669
3189.6843,86.7672
3190.6484,86.6727
3191.6128,86.5847
3192.5769,86.5018
3193.5413,86.4198
3194.5054,86.3334
3195.4697,86.2391
3196.4338,86.1365
3197.3982,86.0281
3198.3623,85.9182
3199.3267,85.8107
3200.2908,85.708
3201.2551,85.6111
3202.2192,85.5197
3203.1836,85.4325
3204.1477,85.3476
3205.1121,85.2632
3206.0762,85.1782
3207.0405,85.0925
3208.0046,85.0069
3208.9690,84.9214
3209.9331,84.835
3210.8975,84.7451
3211.8616,84.65
3212.8259,84.5502
3213.7900,84.4496
3214.7544,84.3539
3215.7185,84.2679
3216.6829,84.1923
3217.6470,84.1236
3218.6113,84.0554
3219.5754,83.9818
3220.5398,83.9002
3221.5039,83.8118
3222.4683,83.7205
3223.4324,83.6304
3224.3967,83.5439
3225.3608,83.4615
3226.3252,83.3823
3227.2893,83.3052
3228.2537,83.2292
3229.2178,83.1543
3230.1821,83.0806
3231.1462,83.008
3232.1106,82.9364
3233.0747,82.8656
3234.0391,82.7955
3235.0032,82.7257
3235.9675,82.6553
3236.9316,82.5825
3237.8960,82.5053
3238.8601,82.4226
3239.8245,82.3355
3240.7886,82.2481
3241.7529,82.1656
3242.7170,82.0927
3243.6814,82.0305
3244.6455,81.9762
3245.6099,81.9238
3246.5740,81.8672
3247.5383,81.8029
3248.5024,81.7315
3249.4668,81.6561
3250.4309,81.5806
3251.3953,81.5081
3252.3594,81.4401
3253.3237,81.3769
3254.2878,81.3182
3255.2522,81.2637
3256.2163,81.2128
3257.1807,81.1639
3258.1448,81.1147
3259.1091,81.0626
3260.0732,81.006
3261.0376,80.9454
3262.0017,80.8827
3262.9661,80.8204
3263.9302,80.7596
3264.8945,80.6996
3265.8586,80.6378
3266.8230,80.5721
3267.7871,80.5019
3268.7515,80.4296
3269.7156,80.3598
3270.6799,80.2972
3271.6440,80.2449
3272.6084,80.2023
3273.5725,80.1652
3274.5369,80.1282
3275.5010,80.0869
3276.4653,80.0406
3277.4294,79.9918
3278.3938,79.9445
3279.3579,79.9017
3280.3223,79.8636
3281.2864,79.8274
3282.2507,79.7897
3283.2148,79.748
3284.1792,79.7013
3285.1433,79.6497
3286.1077,79.5935
3287.0718,79.533
3288.0361,79.4694
3289.0002,79.4056
3289.9646,79.3454
3290.9287,79.2926
3291.8931,79.2491
3292.8572,79.2141
3293.8215,79.1848
3294.7856,79.1575
3295.7500,79.1281
3296.7141,79.0935
3297.6785,79.0516
3298.6426,79.0025
3299.6069,78.9485
3300.5710,78.8932
3301.5354,78.8402
3302.4995,78.7919
3303.4639,78.7494
3304.4280,78.7131
3305.3923,78.6841
3306.3564,78.664
3307.3208,78.6526
3308.2849,78.6466
3309.2493,78.6402
3310.2134,78.6274
3311.1777,78.6053
3312.1418,78.5759
3313.1062,78.544
3314.0703,78.514
3315.0347,78.4867
3315.9988,78.4598
3316.9631,78.4295
3317.9272,78.3938
3318.8916,78.3544
3319.8557,78.3154
3320.8201,78.2809
3321.7842,78.2527
3322.7485,78.2296
3323.7126,78.2076
3324.6770,78.1831
3325.6411,78.1544
3326.6055,78.123
3327.5696,78.093
3328.5339,78.0682
3329.4980,78.0504
3330.4624,78.0379
3331.4265,78.0272
3332.3909,78.0147
3333.3550,77.9993
3334.3193,77.9827
3335.2834,77.9671
3336.2478,77.9539
3337.2119,77.9426
3338.1763,77.9316
3339.1404,77.92
3340.1047,77.9086
3341.0688,77.898
3342.0332,77.8881
3342.9973,77.8767
3343.9617,77.8624
3344.9258,77.8463
3345.8901,77.8325
3346.8542,77.826
3347.8186,77.8286
3348.7827,77.8369
3349.7471,77.8433
3350.7112,77.8407
3351.6755,77.8269
3352.6396,77.8055
3353.6040,77.7841
3354.5681,77.7696
3355.5325,77.765
3356.4966,77.7686
3357.4609,77.776
3358.4250,77.7825
3359.3894,77.785
3360.3535,77.7823
3361.3179,77.775
3362.2820,77.7657
3363.2463,77.7585
3364.2104,77.7579
3365.1748,77.7671
3366.1389,77.7861
3367.1033,77.8117
3368.0674,77.8388
3369.0317,77.8628
3369.9958,77.8814
3370.9602,77.8947
3371.9243,77.9044
3372.8887,77.9122
3373.8528,77.9195
3374.8171,77.928
3375.7813,77.9398
3376.7456,77.9575
3377.7097,77.9829
3378.6741,78.015
3379.6382,78.0496
3380.6025,78.0811
3381.5667,78.1039
3382.5310,78.1159
3383.4951,78.1187
3384.4595,78.1173
3385.4236,78.1176
3386.3879,78.1249
3387.3521,78.1419
3388.3164,78.1693
3389.2805,78.2059
3390.2449,78.2491
3391.2090,78.295
3392.1733,78.34
3393.1375,78.3818
3394.1018,78.4206
3395.0659,78.4586
3396.0303,78.498
3396.9944,78.5382
3397.9587,78.5757
3398.9229,78.6056
3399.8872,78.6253
3400.8513,78.6372
3401.8157,78.6482
3402.7798,78.6667
3403.7441,78.6987
3404.7083,78.7456
3405.6726,78.8043
3406.6367,78.869
3407.6011,78.9341
3408.5652,78.9954
3409.5295,79.0501
3410.4937,79.0971
3411.4580,79.1367
3412.4221,79.1709
3413.3865,79.2028
3414.3506,79.2362
3415.3149,79.2741
3416.2791,79.3181
3417.2434,79.3688
3418.2075,79.4262
3419.1719,79.4899
3420.1360,79.5588
3421.1003,79.6306
3422.0645,79.7018
3423.0288,79.7687
3423.9929,79.8293
3424.9573,79.8845
3425.9214,79.9378
3426.8857,79.9936
3427.8499,80.0555
3428.8142,80.1238
3429.7783,80.1961
3430.7427,80.2684
3431.7068,80.3381
3432.6711,80.4051
3433.6353,80.4714
3434.5996,80.5393
3435.5637,80.6096
3436.5281,80.6802
3437.4922,80.7481
3438.4565,80.8103
3439.4207,80.8657
3440.3850,80.9156
3441.3491,80.9635
3442.3135,81.0139
3443.2776,81.0713
3444.2419,81.139
3445.2061,81.2177
3446.1704,81.3054
3447.1345,81.3979
3448.0989,81.4909
3449.0630,81.5816
3450.0273,81.6689
3450.9915,81.7522
3451.9558,81.8298
3452.9199,81.8996
3453.8843,81.9609
3454.8484,82.0169
3455.8127,82.0742
3456.7769,82.1402
3457.7412,82.219
3458.7053,82.3091
3459.6697,82.405
3460.6338,82.4992
3461.5981,82.5863
3462.5623,82.6645
3463.5266,82.7357
3464.4907,82.8048
3465.4551,82.8778
3466.4192,82.9601
3467.3835,83.0536
3468.3477,83.1555
3469.3120,83.2588
3470.2761,83.3561
3471.2405,83.4444
3472.2046,83.5265
3473.1689,83.6094
3474.1331,83.6992
3475.0974,83.7963
3476.0615,83.8959
3477.0259,83.9919
3477.9900,84.0818
3478.9543,84.1683
3479.9185,84.2567
3480.8828,84.3502
3481.8469,84.4467
3482.8113,84.5411
3483.7754,84.63
3484.7397,84.7147
3485.7039,84.8006
3486.6682,84.8929
3487.6323,84.993
3488.5967,85.0978
3489.5608,85.2026
3490.5251,85.3049
3491.4893,85.4065
3492.4536,85.5113
3493.4177,85.6222
3494.3821,85.738
3495.3462,85.8521
3496.3105,85.9566
3497.2747,86.047
3498.2390,86.1267
3499.2031,86.2059
3500.1675,86.2978
3501.1316,86.412
3502.0959,86.5481
3503.0601,86.6949
3504.0244,86.8368
3504.9885,86.9642
3505.9529,87.0785
3506.9170,87.1876
3507.8813,87.2985
3508.8455,87.4132
3509.8098,87.5283
3510.7739,87.6406
3511.7383,87.7514
3512.7024,87.8666
3513.6667,87.9921
3514.6309,88.1284
3515.5952,88.2686
3516.5593,88.4019
3517.5237,88.5201
3518.4878,88.6225
3519.4521,88.7169
3520.4163,88.8147
3521.3806,88.9251
3522.3447,89.0505
3523.3091,89.1857
3524.2732,89.3229
3525.2375,89.4572
3526.2017,89.5889
3527.1660,89.7216
3528.1301,89.8571
3529.0945,89.9926
3530.0586,90.123
3531.0229,90.2452
3531.9871,90.3618
3532.9514,90.4797
3533.9155,90.6063
3534.8799,90.7449
3535.8440,90.8918
3536.8083,91.0377
3537.7725,91.1719
3538.7368,91.2886
3539.7009,91.3891
3540.6653,91.4816
3541.6294,91.5777
3542.5938,91.6898
3543.5579,91.8271
3544.5222,91.9901
3545.4863,92.1672
3546.4507,92.3401
3547.4148,92.4954
3548.3792,92.6335
3549.3433,92.7651
3550.3076,92.9029
3551.2717,93.054
3552.2361,93.2155
3553.2002,93.376
3554.1646,93.5229
3555.1287,93.6507
3556.0930,93.7626
3557.0571,93.8672
3558.0215,93.9723
3558.9856,94.0813
3559.9500,94.192
3560.9141,94.2988
3561.8784,94.3979
3562.8425,94.4908
3563.8069,94.5857
3564.7710,94.6979
3565.7354,94.8446
3566.6995,95.027
3567.6638,95.2165
3568.6279,95.3769
3569.5923,95.4984
3570.5564,95.5966
3571.5208,95.6921
3572.4849,95.7958
3573.4492,95.9067
3574.4133,96.0165
3575.3777,96.1176
3576.3418,96.2086
3577.3062,96.2943
3578.2703,96.3801
3579.2346,96.467
3580.1987,96.5512
3581.1631,96.6286
3582.1272,96.6993
3583.0916,96.7687
3584.0557,96.8446
3585.0200,96.9335
3585.9841,97.0378
3586.9485,97.1497
3587.9126,97.2489
3588.8770,97.3178
3589.8411,97.3587
3590.8054,97.3899
3591.7695,97.4298
3592.7339,97.4873
3593.6980,97.5598
3594.6624,97.6376
3595.6265,97.7107
3596.5908,97.7766
3597.5549,97.8417
3598.5193,97.9139
3599.4834,97.9947
3600.4478,98.076
3601.4119,98.1464
3602.3762,98.2021
3603.3403,98.251
3604.3047,98.308
3605.2688,98.3855
3606.2332,98.487
3607.1973,98.6029
3608.1616,98.7145
3609.1257,98.805
3610.0901,98.8708
3611.0542,98.9211
3612.0186,98.968
3612.9829,99.0176
3613.9470,99.0684
3614.9114,99.1162
3615.8755,99.1597
3616.8398,99.2013
3617.8040,99.2456
3618.7683,99.2926
3619.7324,99.3328
3620.6968,99.3518
3621.6609,99.3462
3622.6252,99.3295
3623.5894,99.3217
3624.5537,99.3377
3625.5178,99.3823
3626.4822,99.4533
3627.4463,99.5472
3628.4106,99.6531
3629.3748,99.7403
3630.3391,99.7817
3631.3032,99.7868
3632.2676,99.789
3633.2317,99.8156
3634.1960,99.874
3635.1602,99.9537
3636.1245,100.035
3637.0886,100.102
3638.0530,100.146
3639.0171,100.172
3639.9814,100.184
3640.9456,100.192
3641.9099,100.199
3642.8740,100.211
3643.8384,100.227
3644.8025,100.242
3645.7668,100.249
3646.7310,100.248
3647.6953,100.265
3648.6594,100.352
3649.6238,100.486
3650.5879,100.585
3651.5522,100.616
3652.5164,100.607
3653.4807,100.591
3654.4448,100.588
3655.4092,100.599
3656.3733,100.615
3657.3376,100.625
3658.3018,100.627
3659.2661,100.626
3660.2302,100.631
3661.1946,100.646
3662.1587,100.666
3663.1230,100.685
3664.0872,100.698
3665.0515,100.707
3666.0156,100.717
3666.9800,100.726
3667.9441,100.729
3668.9084,100.723
3669.8726,100.71
3670.8369,100.689
3671.8010,100.665
3672.7654,100.642
3673.7295,100.627
3674.6938,100.625
3675.6580,100.639
3676.6223,100.659
3677.5864,100.669
3678.5508,100.668
3679.5149,100.667
3680.4792,100.671
3681.4434,100.675
3682.4077,100.673
3683.3718,100.665
3684.3362,100.656
3685.3003,100.647
3686.2646,100.631
3687.2288,100.596
3688.1931,100.541
3689.1572,100.49
3690.1216,100.467
3691.0857,100.467
3692.0500,100.476
3693.0142,100.485
3693.9785,100.49
3694.9426,100.488
3695.9070,100.48
3696.8711,100.47
3697.8354,100.465
3698.7996,100.468
3699.7639,100.481
3700.7280,100.499
3701.6924,100.516
3702.6565,100.523
3703.6208,100.516
3704.5850,100.496
3705.5493,100.471
3706.5134,100.445
3707.4778,100.42
3708.4419,100.403
3709.4063,100.412
3710.3704,100.472
3711.3347,100.578
3712.2988,100.68
3713.2632,100.733
3714.2273,100.731
3715.1917,100.695
3716.1558,100.645
3717.1201,100.595
3718.0842,100.545
3719.0486,100.495
3720.0127,100.44
3720.9771,100.383
3721.9412,100.327
3722.9055,100.281
3723.8696,100.254
3724.8340,100.247
3725.7981,100.258
3726.7625,100.277
3727.7266,100.3
3728.6909,100.326
3729.6550,100.352
3730.6194,100.372
3731.5835,100.371
3732.5479,100.341
3733.5120,100.294
3734.4763,100.27
3735.4404,100.29
3736.4048,100.333
3737.3689,100.364
3738.3333,100.38
3739.2974,100.418
3740.2617,100.476
3741.2258,100.553
3742.1902,100.624
3743.1543,100.652
3744.1187,100.613
3745.0828,100.518
3746.0471,100.405
3747.0112,100.312
3747.9756,100.264
3748.9397,100.271
3749.9041,100.329
3750.8682,100.406
3751.8325,100.449
3752.7966,100.427
3753.7610,100.358
3754.7251,100.28
3755.6895,100.221
3756.6536,100.191
3757.6179,100.192
3758.5820,100.213
3759.5464,100.239
3760.5105,100.254
3761.4749,100.254
3762.4390,100.244
3763.4033,100.234
3764.3674,100.23
3765.3318,100.236
3766.2959,100.25
3767.2603,100.269
3768.2244,100.286
3769.1887,100.299
3770.1528,100.303
3771.1172,100.296
3772.0813,100.28
3773.0457,100.26
3774.0098,100.243
3774.9741,100.233
3775.9382,100.231
3776.9026,100.233
3777.8667,100.238
3778.8311,100.243
3779.7952,100.245
3780.7595,100.239
3781.7236,100.227
3782.6880,100.213
3783.6521,100.205
3784.6165,100.21
3785.5806,100.229
3786.5449,100.257
3787.5090,100.286
3788.4734,100.309
3789.4375,100.319
3790.4019,100.318
3791.3660,100.305
3792.3303,100.281
3793.2944,100.25
3794.2588,100.214
3795.2229,100.185
3796.1873,100.172
3797.1514,100.18
3798.1157,100.202
3799.0798,100.224
3800.0442,100.23
3801.0083,100.215
3801.9727,100.188
3802.9368,100.165
3803.9011,100.162
3804.8652,100.184
3805.8296,100.224
3806.7937,100.266
3807.7581,100.288
3808.7222,100.28
3809.6865,100.255
3810.6506,100.235
3811.6150,100.235
3812.5791,100.255
3813.5435,100.278
3814.5076,100.283
3815.4719,100.26
3816.4360,100.216
3817.4004,100.167
3818.3645,100.132
3819.3289,100.122
3820.2930,100.136
3821.2573,100.158
3822.2214,100.165
3823.1858,100.149
3824.1499,100.122
3825.1143,100.104
3826.0784,100.108
3827.0427,100.134
3828.0068,100.173
3828.9712,100.211
3829.9353,100.239
3830.8997,100.254
3831.8638,100.261
3832.8281,100.265
3833.7922,100.265
3834.7566,100.253
3835.7207,100.219
3836.6851,100.163
3837.6492,100.099
3838.6135,100.053
3839.5776,100.038
3840.5420,100.055
3841.5061,100.091
3842.4705,100.134
3843.4346,100.168
3844.3989,100.183
3845.3630,100.173
3846.3274,100.148
3847.2915,100.122
3848.2559,100.116
3849.2200,100.142
3850.1843,100.197
3851.1484,100.269
3852.1128,100.339
3853.0769,100.389
3854.0413,100.393
3855.0054,100.336
3855.9697,100.25
3856.9338,100.177
3857.8982,100.141
3858.8623,100.14
3859.8267,100.155
3860.7908,100.163
3861.7551,100.153
3862.7192,100.135
3863.6836,100.13
3864.6477,100.149
3865.6121,100.182
3866.5762,100.214
3867.5405,100.228
3868.5046,100.219
3869.4690,100.194
3870.4331,100.173
3871.3975,100.166
3872.3616,100.171
3873.3259,100.176
3874.2900,100.175
3875.2544,100.171
3876.2185,100.169
3877.1829,100.172
3878.1470,100.178
3879.1113,100.182
3880.0754,100.181
3881.0398,100.178
3882.0039,100.178
3882.9683,100.184
3883.9324,100.196
3884.8967,100.211
3885.8608,100.221
3886.8252,100.222
3887.7893,100.214
3888.7537,100.203
3889.7178,100.192
3890.6821,100.185
3891.6462,100.185
3892.6106,100.19
3893.5747,100.194
3894.5391,100.194
3895.5032,100.188
3896.4675,100.174
3897.4316,100.149
3898.3960,100.113
3899.3601,100.076
3900.3245,100.049
3901.2886,100.041
3902.2529,100.048
3903.2170,100.066
3904.1814,100.09
3905.1455,100.115
3906.1099,100.139
3907.0740,100.159
3908.0383,100.177
3909.0024,100.189
3909.9668,100.194
3910.9309,100.19
3911.8953,100.182
3912.8594,100.172
3913.8237,100.165
3914.7878,100.162
3915.7522,100.162
3916.7163,100.163
3917.6807,100.166
3918.6448,100.167
3919.6091,100.164
3920.5732,100.154
3921.5376,100.138
3922.5017,100.116
3923.4661,100.093
3924.4302,100.072
3925.3945,100.055
3926.3586,100.042
3927.3230,100.03
3928.2871,100.018
3929.2515,100.008
3930.2156,100.004
3931.1799,100.012
3932.1440,100.035
3933.1084,100.067
3934.0725,100.101
3935.0369,100.128
3936.0010,100.146
3936.9653,100.154
3937.9294,100.15
3938.8938,100.136
3939.8579,100.113
3940.8223,100.088
3941.7864,100.07
3942.7507,100.064
3943.7148,100.069
3944.6792,100.079
3945.6433,100.085
3946.6077,100.083
3947.5718,100.072
3948.5361,100.057
3949.5002,100.042
3950.4646,100.03
3951.4287,100.022
3952.3931,100.015
3953.3572,100.012
3954.3215,100.013
3955.2856,100.017
3956.2500,100.025
3957.2141,100.033
3958.1785,100.04
3959.1426,100.046
3960.1069,100.053
3961.0710,100.063
3962.0354,100.074
3962.9995,100.083
3963.9639,100.086
3964.9280,100.082
3965.8923,100.074
3966.8564,100.065
3967.8208,100.058
3968.7849,100.053
3969.7493,100.047
3970.7134,100.039
3971.6777,100.029
3972.6418,100.022
3973.6062,100.02
3974.5703,100.025
3975.5347,100.035
3976.4988,100.043
3977.4631,100.048
3978.4272,100.046
3979.3916,100.038
3980.3557,100.026
3981.3201,100.013
3982.2842,100.001
3983.2485,99.9914
3984.2126,99.9877
3985.1770,99.9916
3986.1411,100.003
3987.1055,100.019
3988.0696,100.032
3989.0339,100.036
3989.9980,100.023
3990.9624,99.9937
3991.9265,99.9568
3992.8909,99.9243
3993.8550,99.907
3994.8193,99.9084
3995.7834,99.9236
3996.7478,99.9428
3997.7119,99.9572
3998.6763,99.9634
3999.6404,99.9639
4000.6047,99.9233

##### Extended Information
[Comments]
Sample name
Comment
User
Division
Company,HANKYONG

[Detailed Information]
Creation date,4/24/2024 10:07 AM

Data array type,Linear data array
Horizontal axis,Wavenumber [cm-1]
Vertical axis,%T
Start,649.893 cm-1
End,4000.6 cm-1
Data interval,0.964233 cm-1
Data points,3476    

[Measurement Information]
Model Name,FT/IR-4700typeA
Serial Number,D056761788

Accessory,ATR PRO ONE
Accessory S/N,C174761809
Incident angle,45 deg

Measurement Date,4/24/2024 10:05 AM

Light Source,Standard
Detector,TGS
Accumulation,32
Resolution,4 cm-1
Zero Filling,On
Apodization,Cosine
Gain,Auto (4)
Aperture,Auto (7.1 mm)
Scanning Speed,Auto (2 mm/sec)
Filter,Auto (30000 Hz)

