TITLE,
DATA TYPE,INFRARED SPECTRUM
ORIGIN,JASCO
OWNER,
DATE,24/04/24
TIME,14:16:40
SPECTROMETER/DATA SYSTEM,
LOCALE,1033
RESOLUTION,
DELTAX,0.964233
XUNITS,1/CM
YUNITS,TRANSMITTANCE
FIRSTX,  649.8934
LASTX, 4000.6047
NPOINTS,    3476
FIRSTY,    98.30078
MAXY,   101.45719
MINY,    79.89671
XYDATA
649.8934,98.3008
650.8576,98.2965
651.8218,98.3186
652.7861,98.3643
653.7503,98.4306
654.7145,98.5159
655.6788,98.6093
656.6430,98.6882
657.6072,98.7321
658.5715,98.7417
659.5357,98.7483
660.4999,98.7972
661.4642,98.91
662.4284,99.0564
663.3926,99.1601
664.3569,99.1224
665.3211,98.8388
666.2853,98.2303
667.2496,97.3593
668.2138,96.5982
669.1780,96.4197
670.1423,96.8232
671.1065,97.4256
672.0707,97.9348
673.0350,98.2473
673.9992,98.3611
674.9634,98.3205
675.9277,98.1966
676.8919,98.0646
677.8561,97.9778
678.8204,97.9562
679.7846,97.996
680.7488,98.0822
681.7131,98.193
682.6773,98.3029
683.6415,98.3893
684.6058,98.443
685.5700,98.4714
686.5342,98.4909
687.4985,98.5133
688.4627,98.5363
689.4269,98.5429
690.3912,98.5134
691.3554,98.4488
692.3196,98.3932
693.2839,98.4244
694.2481,98.589
695.2123,98.8524
696.1766,99.1379
697.1408,99.3849
698.1050,99.5636
699.0693,99.6678
700.0335,99.7083
700.9977,99.7064
701.9620,99.6865
702.9262,99.6708
703.8904,99.6762
704.8547,99.7124
705.8189,99.7797
706.7831,99.8673
707.7474,99.9565
708.7116,100.028
709.6758,100.07
710.6401,100.085
711.6043,100.084
712.5685,100.102
713.5328,100.137
714.4970,100.153
715.4612,100.288
716.4255,100.177
717.3897,100.001
718.3539,99.7987
719.3182,99.6322
720.2824,99.5581
721.2466,99.5959
722.2109,99.7172
723.1751,99.865
724.1393,99.9862
725.1036,100.054
726.0678,100.072
727.0320,100.058
727.9963,100.036
728.9605,100.017
729.9247,100.004
730.8890,99.9955
731.8532,99.9894
732.8174,99.9868
733.7817,99.9867
734.7459,99.9848
735.7101,99.9745
736.6744,99.9509
737.6386,99.9148
738.6028,99.8737
739.5671,99.8389
740.5313,99.8205
741.4955,99.8232
742.4598,99.8439
743.4240,99.8725
744.3882,99.8954
745.3525,99.9028
746.3167,99.8903
747.2809,99.8571
748.2452,99.813
749.2094,99.771
750.1736,99.7412
751.1379,99.7273
752.1021,99.7253
753.0663,99.7259
754.0306,99.7189
754.9948,99.6974
755.9590,99.6595
756.9233,99.6091
757.8875,99.554
758.8517,99.504
759.8160,99.4679
760.7802,99.4504
761.7444,99.4501
762.7087,99.4581
763.6729,99.4617
764.6371,99.4496
765.6014,99.4181
766.5656,99.3734
767.5298,99.3286
768.4941,99.2962
769.4583,99.2808
770.4225,99.2771
771.3868,99.2736
772.3510,99.2601
773.3152,99.2335
774.2795,99.1988
775.2437,99.1656
776.2079,99.1424
777.1722,99.134
778.1364,99.1403
779.1006,99.1573
780.0649,99.1795
781.0291,99.1996
781.9933,99.2109
782.9576,99.2079
783.9218,99.1886
784.8860,99.1549
785.8503,99.1112
786.8145,99.0628
787.7787,99.0141
788.7430,98.9673
789.7072,98.924
790.6714,98.8844
791.6357,98.8483
792.5999,98.8137
793.5641,98.7771
794.5284,98.734
795.4926,98.6806
796.4568,98.6154
797.4211,98.5389
798.3853,98.4534
799.3495,98.3621
800.3138,98.2679
801.2780,98.1744
802.2422,98.0851
803.2065,98.0035
804.1707,97.9318
805.1349,97.8707
806.0992,97.8186
807.0634,97.7728
808.0276,97.73
808.9919,97.6874
809.9561,97.6421
810.9203,97.5913
811.8846,97.5322
812.8488,97.4637
813.8130,97.3875
814.7773,97.3084
815.7415,97.2332
816.7057,97.1674
817.6700,97.1127
818.6342,97.0667
819.5984,97.0239
820.5627,96.9793
821.5269,96.93
822.4911,96.8767
823.4554,96.822
824.4196,96.7685
825.3839,96.7183
826.3481,96.672
827.3123,96.6301
828.2766,96.5933
829.2408,96.5633
830.2050,96.5421
831.1693,96.5307
832.1335,96.5288
833.0977,96.5346
834.0620,96.5454
835.0262,96.56
835.9904,96.58
836.9547,96.6098
837.9189,96.6547
838.8831,96.7179
839.8474,96.7971
840.8116,96.8838
841.7758,96.9654
842.7401,97.0306
843.7043,97.0737
844.6685,97.0966
845.6328,97.1081
846.5970,97.1184
847.5612,97.1346
848.5255,97.1574
849.4897,97.1824
850.4539,97.2034
851.4182,97.217
852.3824,97.2236
853.3466,97.2258
854.3109,97.2244
855.2751,97.2168
856.2393,97.1976
857.2036,97.1635
858.1678,97.1178
859.1320,97.0707
860.0963,97.0359
861.0605,97.0239
862.0247,97.0382
862.9890,97.0746
863.9532,97.1243
864.9174,97.1778
865.8817,97.2277
866.8459,97.2686
867.8101,97.2977
868.7744,97.317
869.7386,97.3338
870.7028,97.3592
871.6671,97.4012
872.6313,97.4565
873.5955,97.5073
874.5598,97.5277
875.5240,97.4983
876.4882,97.4192
877.4525,97.313
878.4167,97.2147
879.3809,97.1533
880.3452,97.1387
881.3094,97.1612
882.2736,97.2023
883.2379,97.2481
884.2021,97.2945
885.1663,97.342
886.1306,97.3864
887.0948,97.4154
888.0590,97.4146
889.0233,97.3783
889.9875,97.3165
890.9517,97.2507
891.9160,97.2019
892.8802,97.1785
893.8444,97.1737
894.8087,97.1715
895.7729,97.1576
896.7371,97.1262
897.7014,97.0796
898.6656,97.0233
899.6298,96.9607
900.5941,96.8929
901.5583,96.821
902.5225,96.75
903.4868,96.6879
904.4510,96.6425
905.4152,96.6168
906.3795,96.6064
907.3437,96.6013
908.3079,96.5918
909.2722,96.5743
910.2364,96.5556
911.2006,96.5514
912.1649,96.5809
913.1291,96.6588
914.0933,96.7891
915.0576,96.9636
916.0218,97.1661
916.9860,97.3786
917.9503,97.5884
918.9145,97.7907
919.8787,97.9879
920.8430,98.1854
921.8072,98.3872
922.7714,98.5937
923.7357,98.8005
924.6999,99.0001
925.6641,99.1848
926.6284,99.3482
927.5926,99.4875
928.5568,99.6022
929.5211,99.6935
930.4853,99.7618
931.4495,99.8261
932.4138,99.902
933.3780,99.9572
934.3422,99.9977
935.3065,100.032
936.2707,100.067
937.2349,100.108
938.1992,100.153
939.1634,100.196
940.1276,100.232
941.0919,100.26
942.0561,100.28
943.0203,100.295
943.9846,100.31
944.9488,100.323
945.9130,100.329
946.8773,100.326
947.8415,100.31
948.8057,100.281
949.7700,100.243
950.7342,100.202
951.6984,100.159
952.6627,100.118
953.6269,100.078
954.5911,100.037
955.5554,99.9957
956.5196,99.9511
957.4838,99.9021
958.4481,99.8469
959.4123,99.7852
960.3765,99.7188
961.3408,99.6519
962.3050,99.59
963.2692,99.5367
964.2335,99.4928
965.1977,99.4553
966.1619,99.4195
967.1262,99.3819
968.0904,99.3421
969.0546,99.3033
970.0189,99.2695
970.9831,99.243
971.9473,99.222
972.9116,99.2017
973.8758,99.1763
974.8400,99.1421
975.8043,99.0988
976.7685,99.0486
977.7327,98.9944
978.6970,98.9379
979.6612,98.879
980.6254,98.8162
981.5897,98.7475
982.5539,98.671
983.5181,98.5843
984.4824,98.4858
985.4466,98.3753
986.4108,98.2547
987.3751,98.1279
988.3393,97.9994
989.3035,97.8711
990.2678,97.7413
991.2320,97.6038
992.1962,97.4505
993.1605,97.2741
994.1247,97.0712
995.0889,96.8429
996.0532,96.5936
997.0174,96.3282
997.9816,96.0489
998.9459,95.7537
999.9101,95.437
1000.8743,95.093
1001.8386,94.7188
1002.8028,94.3157
1003.7670,93.8889
1004.7313,93.444
1005.6955,92.9855
1006.6597,92.5159
1007.6240,92.0369
1008.5882,91.5514
1009.5524,91.0639
1010.5167,90.581
1011.4809,90.1109
1012.4451,89.6623
1013.4094,89.2425
1014.3736,88.8543
1015.3378,88.4942
1016.3021,88.1554
1017.2663,87.8338
1018.2305,87.5315
1019.1948,87.2538
1020.1590,86.9973
1021.1232,86.7385
1022.0875,86.4346
1023.0517,86.0442
1024.0160,85.5575
1024.9802,85.0178
1025.9445,84.5142
1026.9087,84.1435
1027.8729,83.9622
1028.8372,83.9548
1029.8014,84.0399
1030.7656,84.1104
1031.7299,84.0819
1032.6941,83.9261
1033.6583,83.6723
1034.6226,83.3845
1035.5868,83.1301
1036.5510,82.9559
1037.5153,82.8776
1038.4795,82.8814
1039.4437,82.9338
1040.4080,82.9948
1041.3722,83.0316
1042.3364,83.0288
1043.3007,82.9904
1044.2649,82.9333
1045.2291,82.8752
1046.1934,82.826
1047.1576,82.7874
1048.1218,82.7581
1049.0861,82.7403
1050.0503,82.7393
1051.0145,82.7565
1051.9788,82.7832
1052.9430,82.8027
1053.9072,82.8041
1054.8715,82.7988
1055.8357,82.8265
1056.7999,82.9407
1057.7642,83.1746
1058.7284,83.5075
1059.6926,83.8533
1060.6569,84.0866
1061.6211,84.1003
1062.5853,83.8648
1063.5496,83.4559
1064.5138,83.0282
1065.4780,82.7452
1066.4423,82.701
1067.4065,82.8769
1068.3707,83.1558
1069.3350,83.3847
1070.2992,83.4478
1071.2634,83.3113
1072.2277,83.0211
1073.1919,82.665
1074.1561,82.3264
1075.1204,82.0562
1076.0846,81.8693
1077.0488,81.7592
1078.0131,81.7136
1078.9773,81.7223
1079.9415,81.777
1080.9058,81.868
1081.8700,81.9823
1082.8342,82.1057
1083.7985,82.2257
1084.7627,82.3345
1085.7269,82.4326
1086.6912,82.5289
1087.6554,82.6388
1088.6196,82.7762
1089.5839,82.9446
1090.5481,83.1313
1091.5123,83.3097
1092.4766,83.4489
1093.4408,83.5266
1094.4050,83.5364
1095.3693,83.4868
1096.3335,83.3931
1097.2977,83.2681
1098.2620,83.1171
1099.2262,82.939
1100.1904,82.7302
1101.1547,82.489
1102.1189,82.2178
1103.0831,81.9224
1104.0474,81.6118
1105.0116,81.2961
1105.9758,80.9861
1106.9401,80.6923
1107.9043,80.4253
1108.8685,80.1969
1109.8328,80.0216
1110.7970,79.9159
1111.7612,79.8967
1112.7255,79.9778
1113.6897,80.1666
1114.6539,80.4635
1115.6182,80.8632
1116.5824,81.357
1117.5466,81.935
1118.5109,82.5854
1119.4751,83.2951
1120.4393,84.0501
1121.4036,84.8378
1122.3678,85.6498
1123.3320,86.4832
1124.2963,87.3389
1125.2605,88.218
1126.2247,89.1183
1127.1890,90.0323
1128.1532,90.9491
1129.1174,91.8567
1130.0817,92.7445
1131.0459,93.6033
1132.0101,94.424
1132.9744,95.1955
1133.9386,95.905
1134.9028,96.5391
1135.8671,97.0869
1136.8313,97.5424
1137.7955,97.9048
1138.7598,98.1789
1139.7240,98.373
1140.6882,98.4974
1141.6525,98.5625
1142.6167,98.578
1143.5809,98.5523
1144.5452,98.4935
1145.5094,98.4105
1146.4736,98.3137
1147.4379,98.2148
1148.4021,98.1247
1149.3663,98.0519
1150.3306,98.0019
1151.2948,97.9769
1152.2590,97.9774
1153.2233,98.0032
1154.1875,98.0539
1155.1517,98.1297
1156.1160,98.2311
1157.0802,98.3585
1158.0444,98.5106
1159.0087,98.6829
1159.9729,98.8653
1160.9371,99.0437
1161.9014,99.2023
1162.8656,99.3292
1163.8298,99.4195
1164.7941,99.4762
1165.7583,99.5067
1166.7225,99.5182
1167.6868,99.5149
1168.6510,99.4974
1169.6152,99.4614
1170.5795,99.3503
1171.5437,99.2255
1172.5079,99.0871
1173.4722,98.9325
1174.4364,98.7562
1175.4006,98.5516
1176.3649,98.3136
1177.3291,98.042
1178.2933,97.7407
1179.2576,97.4172
1180.2218,97.0797
1181.1860,96.7354
1182.1503,96.3897
1183.1145,96.0465
1184.0787,95.7087
1185.0430,95.3782
1186.0072,95.0562
1186.9714,94.7427
1187.9357,94.4363
1188.8999,94.1345
1189.8641,93.8349
1190.8284,93.5346
1191.7926,93.2306
1192.7568,92.9201
1193.7211,92.6006
1194.6853,92.271
1195.6495,91.9313
1196.6138,91.582
1197.5780,91.2227
1198.5422,90.8516
1199.5065,90.5238
1200.4707,90.1155
1201.4349,89.6929
1202.3992,89.2622
1203.3634,88.8326
1204.3276,88.414
1205.2919,88.0148
1206.2561,87.6404
1207.2203,87.2936
1208.1846,86.9761
1209.1488,86.6902
1210.1130,86.4398
1211.0773,86.2301
1212.0415,86.0661
1213.0057,85.9504
1213.9700,85.8827
1214.9342,85.8605
1215.8984,85.8811
1216.8627,85.9429
1217.8269,86.0451
1218.7911,86.1849
1219.7554,86.3563
1220.7196,86.5508
1221.6838,86.7592
1222.6481,86.9743
1223.6123,87.1917
1224.5765,87.4102
1225.5408,87.6296
1226.5050,87.8496
1227.4692,88.0688
1228.4335,88.2851
1229.3977,88.4962
1230.3619,88.7013
1231.3262,88.9029
1232.2904,89.1072
1233.2546,89.3199
1234.2189,89.539
1235.1831,89.7487
1236.1473,89.9201
1237.1116,90.0243
1238.0758,90.0509
1239.0400,90.0222
1240.0043,89.99
1240.9685,90.0129
1241.9327,90.1267
1242.8970,90.3238
1243.8612,90.5571
1244.8254,90.7657
1245.7897,90.9072
1246.7539,90.9772
1247.7181,91.0048
1248.6824,91.0309
1249.6466,91.0852
1250.6108,91.1738
1251.5751,91.2834
1252.5393,91.393
1253.5035,91.486
1254.4678,91.5548
1255.4320,91.5993
1256.3962,91.6244
1257.3605,91.6367
1258.3247,91.6443
1259.2889,91.6554
1260.2532,91.6757
1261.2174,91.7066
1262.1816,91.7451
1263.1459,91.7864
1264.1101,91.8274
1265.0743,91.8681
1266.0386,91.9118
1267.0028,91.9635
1267.9670,92.0289
1268.9313,92.1137
1269.8955,92.2227
1270.8597,92.359
1271.8240,92.5216
1272.7882,92.7055
1273.7524,92.9028
1274.7167,93.1056
1275.6809,93.3088
1276.6451,93.5104
1277.6094,93.7117
1278.5736,93.9142
1279.5378,94.1183
1280.5021,94.3215
1281.4663,94.5193
1282.4305,94.706
1283.3948,94.8768
1284.3590,95.0294
1285.3232,95.1646
1286.2875,95.286
1287.2517,95.399
1288.2159,95.5084
1289.1802,95.6156
1290.1444,95.7173
1291.1086,95.8067
1292.0729,95.8765
1293.0371,95.9228
1294.0013,95.947
1294.9656,95.9551
1295.9298,95.9548
1296.8940,95.9518
1297.8583,95.9475
1298.8225,95.9397
1299.7867,95.9245
1300.7510,95.899
1301.7152,95.8621
1302.6794,95.815
1303.6437,95.7611
1304.6079,95.7041
1305.5721,95.6462
1306.5364,95.5873
1307.5006,95.5242
1308.4648,95.4522
1309.4291,95.3686
1310.3933,95.2759
1311.3575,95.1816
1312.3218,95.0949
1313.2860,95.0206
1314.2502,94.9566
1315.2145,94.8966
1316.1787,94.8371
1317.1429,94.7826
1318.1072,94.7444
1319.0714,94.7333
1320.0356,94.7504
1320.9999,94.7851
1321.9641,94.8224
1322.9283,94.8528
1323.8926,94.877
1324.8568,94.9045
1325.8210,94.9475
1326.7853,95.0152
1327.7495,95.1115
1328.7137,95.2365
1329.6780,95.3893
1330.6422,95.5672
1331.6064,95.762
1332.5707,95.9568
1333.5349,96.1282
1334.4991,96.2548
1335.4634,96.3295
1336.4276,96.3721
1337.3918,96.4356
1338.3561,96.5922
1339.3203,96.8894
1340.2845,97.3051
1341.2488,97.7591
1342.2130,98.17
1343.1772,98.4964
1344.1415,98.7366
1345.1057,98.9104
1346.0699,99.0439
1347.0342,99.1605
1347.9984,99.2746
1348.9626,99.3876
1349.9269,99.49
1350.8911,99.569
1351.8553,99.6172
1352.8196,99.6374
1353.7838,99.6411
1354.7480,99.64
1355.7123,99.6365
1356.6765,99.6196
1357.6407,99.5709
1358.6050,99.4752
1359.5692,99.3303
1360.5334,99.1575
1361.4977,99.0034
1362.4619,98.9128
1363.4261,98.8863
1364.3904,98.879
1365.3546,98.8436
1366.3188,98.762
1367.2831,98.643
1368.2473,98.5058
1369.2115,98.3662
1370.1758,98.2295
1371.1400,98.0933
1372.1042,97.9616
1373.0685,97.8561
1374.0327,97.8123
1374.9969,97.851
1375.9612,97.9554
1376.9254,98.0877
1377.8896,98.2222
1378.8539,98.3551
1379.8181,98.4924
1380.7823,98.6339
1381.7466,98.7691
1382.7108,98.888
1383.6750,98.9949
1384.6393,99.114
1385.6035,99.2801
1386.5677,99.5083
1387.5320,99.7515
1388.4962,99.9061
1389.4604,99.8879
1390.4247,99.6897
1391.3889,99.3319
1392.3531,98.9361
1393.3174,98.6178
1394.2816,98.4843
1395.2458,98.5878
1396.2101,98.8735
1397.1743,99.2021
1398.1385,99.4386
1399.1028,99.5171
1400.0670,99.4415
1401.0313,99.2514
1401.9955,98.9921
1402.9597,98.7029
1403.9240,98.4169
1404.8882,98.1609
1405.8524,97.9454
1406.8167,97.759
1407.7809,97.5796
1408.7451,97.3922
1409.7094,97.1933
1410.6736,96.9837
1411.6378,96.761
1412.6021,96.52
1413.5663,96.2565
1414.5305,95.97
1415.4948,95.6587
1416.4590,95.3226
1417.4232,94.9838
1418.3875,94.6913
1419.3517,94.466
1420.3159,94.2669
1421.2802,94.0568
1422.2444,93.8545
1423.2086,93.7068
1424.1729,93.6444
1425.1371,93.6643
1426.1013,93.7437
1427.0656,93.8652
1428.0298,94.0295
1428.9940,94.2464
1429.9583,94.5112
1430.9225,94.7948
1431.8867,95.0654
1432.8510,95.3143
1433.8152,95.5517
1434.7794,95.7872
1435.7437,96.013
1436.7079,96.1862
1437.6721,96.2278
1438.6364,96.0834
1439.6006,95.7745
1440.5648,95.364
1441.5291,94.9007
1442.4933,94.4013
1443.4575,93.8626
1444.4218,93.2783
1445.3860,92.6504
1446.3502,91.9945
1447.3145,91.3425
1448.2787,90.7331
1449.2429,90.1934
1450.2072,89.7305
1451.1714,89.3444
1452.1356,89.0368
1453.0999,88.7977
1454.0641,88.5853
1455.0283,88.342
1455.9926,88.1018
1456.9568,88.0709
1457.9210,88.3133
1458.8853,88.5469
1459.8495,88.5956
1460.8137,88.5363
1461.7780,88.5019
1462.7422,88.588
1463.7064,88.8584
1464.6707,89.3322
1465.6349,89.9332
1466.5991,90.5236
1467.5634,91.0288
1468.5276,91.4706
1469.4918,91.8999
1470.4561,92.35
1471.4203,92.8556
1472.3845,93.4847
1473.3488,94.2638
1474.3130,95.062
1475.2772,95.7013
1476.2415,96.1248
1477.2057,96.3721
1478.1699,96.497
1479.1342,96.5368
1480.0984,96.5132
1481.0626,96.4375
1482.0269,96.3113
1482.9911,96.1282
1483.9553,95.8788
1484.9196,95.5499
1485.8838,95.1212
1486.8480,94.5788
1487.8123,93.9726
1488.7765,93.4579
1489.7407,93.1713
1490.7050,93.0549
1491.6692,92.9533
1492.6334,92.7869
1493.5977,92.5473
1494.5619,92.231
1495.5261,91.8298
1496.4904,91.375
1497.4546,90.9563
1498.4188,90.6333
1499.3831,90.3723
1500.3473,90.1333
1501.3115,89.9354
1502.2758,89.8138
1503.2400,89.7471
1504.2042,89.5971
1505.1685,89.1058
1506.1327,88.1243
1507.0969,87.0731
1508.0612,86.5517
1509.0254,86.423
1509.9896,86.3334
1510.9539,86.1929
1511.9181,86.0377
1512.8823,85.9143
1513.8466,85.872
1514.8108,85.971
1515.7750,86.2626
1516.7393,86.7538
1517.7035,87.4136
1518.6677,88.2298
1519.6320,89.2405
1520.5962,90.4709
1521.5604,91.8223
1522.5247,93.0919
1523.4889,94.1495
1524.4531,95.0336
1525.4174,95.855
1526.3816,96.6592
1527.3458,97.3921
1528.3101,97.9761
1529.2743,98.3874
1530.2385,98.6598
1531.2028,98.8507
1532.1670,99.018
1533.1312,99.2005
1534.0955,99.3948
1535.0597,99.5755
1536.0239,99.7369
1536.9882,99.8637
1537.9524,99.8556
1538.9166,99.5316
1539.8809,98.8824
1540.8451,98.3838
1541.8093,98.4503
1542.7736,98.8273
1543.7378,99.1814
1544.7020,99.4237
1545.6663,99.5584
1546.6305,99.5964
1547.5947,99.5557
1548.5590,99.5005
1549.5232,99.4254
1550.4874,99.3447
1551.4517,99.2576
1552.4159,99.1645
1553.3801,99.0854
1554.3444,99.0526
1555.3086,99.0763
1556.2728,99.1186
1557.2371,99.1632
1558.2013,99.3639
1559.1655,99.7556
1560.1298,99.8983
1561.0940,99.5929
1562.0582,99.0745
1563.0225,98.5912
1563.9867,98.2505
1564.9509,98.0508
1565.9152,97.9326
1566.8794,97.8226
1567.8436,97.6739
1568.8079,97.4894
1569.7721,97.2962
1570.7363,97.1073
1571.7006,96.9272
1572.6648,96.7562
1573.6290,96.5679
1574.5933,96.3089
1575.5575,95.9634
1576.5217,95.6003
1577.4860,95.2796
1578.4502,94.978
1579.4144,94.6668
1580.3787,94.3513
1581.3429,94.0384
1582.3071,93.7212
1583.2714,93.3906
1584.2356,93.0469
1585.1998,92.6964
1586.1641,92.3455
1587.1283,91.9996
1588.0925,91.6646
1589.0568,91.347
1590.0210,91.0512
1590.9852,90.7774
1591.9495,90.5253
1592.9137,90.299
1593.8779,90.1084
1594.8422,89.961
1595.8064,89.8522
1596.7706,89.7627
1597.7349,89.6691
1598.6991,89.5566
1599.6633,89.4264
1600.6276,89.2948
1601.5918,89.1845
1602.5560,89.1111
1603.5203,89.0743
1604.4845,89.0609
1605.4487,89.0594
1606.4130,89.0721
1607.3772,89.1165
1608.3414,89.212
1609.3057,89.358
1610.2699,89.5287
1611.2341,89.6978
1612.1984,89.863
1613.1626,90.042
1614.1268,90.2584
1615.0911,90.544
1616.0553,90.9241
1617.0195,91.3454
1617.9838,91.6782
1618.9480,91.8658
1619.9122,91.9759
1620.8765,92.1071
1621.8407,92.3149
1622.8049,92.597
1623.7692,92.9063
1624.7334,93.1842
1625.6976,93.4055
1626.6619,93.5873
1627.6261,93.7544
1628.5903,93.9101
1629.5546,94.0468
1630.5188,94.1728
1631.4830,94.3104
1632.4473,94.4573
1633.4115,94.5578
1634.3757,94.547
1635.3400,94.4703
1636.3042,94.4614
1637.2684,94.5155
1638.2327,94.5259
1639.1969,94.4739
1640.1611,94.4128
1641.1254,94.3903
1642.0896,94.4178
1643.0538,94.4599
1644.0181,94.433
1644.9823,94.2531
1645.9465,93.9533
1646.9108,93.7124
1647.8750,93.6634
1648.8392,93.8055
1649.8035,94.0991
1650.7677,94.4707
1651.7319,94.7815
1652.6962,94.9428
1653.6604,95.0041
1654.6246,94.9027
1655.5889,94.5678
1656.5531,94.1498
1657.5173,93.826
1658.4816,93.6613
1659.4458,93.62
1660.4100,93.6252
1661.3743,93.6235
1662.3385,93.609
1663.3027,93.5877
1664.2670,93.555
1665.2312,93.5111
1666.1954,93.456
1667.1597,93.3713
1668.1239,93.2404
1669.0881,93.0973
1670.0524,93.0177
1671.0166,93.0352
1671.9808,93.1237
1672.9451,93.2525
1673.9093,93.3929
1674.8735,93.494
1675.8378,93.4881
1676.8020,93.3408
1677.7662,93.0959
1678.7305,92.8584
1679.6947,92.7261
1680.6589,92.7341
1681.6232,92.8446
1682.5874,92.9966
1683.5516,93.1701
1684.5159,93.3184
1685.4801,93.3155
1686.4443,93.1341
1687.4086,92.8909
1688.3728,92.7113
1689.3370,92.6535
1690.3013,92.7122
1691.2655,92.8452
1692.2297,92.9923
1693.1940,93.0846
1694.1582,93.0593
1695.1224,92.8961
1696.0867,92.6639
1697.0509,92.5211
1698.0151,92.6077
1698.9794,92.8881
1699.9436,93.1397
1700.9078,93.1508
1701.8721,92.8974
1702.8363,92.5163
1703.8005,92.1759
1704.7648,91.987
1705.7290,91.9713
1706.6932,92.0675
1707.6575,92.1766
1708.6217,92.2305
1709.5859,92.2239
1710.5502,92.1898
1711.5144,92.1585
1712.4786,92.136
1713.4429,92.1086
1714.4071,92.0748
1715.3713,92.1077
1716.3356,92.3685
1717.2998,92.9043
1718.2640,93.4646
1719.2283,93.7897
1720.1925,93.8815
1721.1567,93.8901
1722.1210,93.9438
1723.0852,94.0908
1724.0494,94.3082
1725.0137,94.5355
1725.9779,94.7148
1726.9421,94.8224
1727.9064,94.8775
1728.8706,94.9258
1729.8348,95.0142
1730.7991,95.1742
1731.7633,95.4246
1732.7275,95.7754
1733.6918,96.1771
1734.6560,96.4824
1735.6202,96.5843
1736.5845,96.5371
1737.5487,96.4713
1738.5129,96.4727
1739.4772,96.5469
1740.4414,96.6438
1741.4056,96.7042
1742.3699,96.7004
1743.3341,96.648
1744.2983,96.585
1745.2626,96.5444
1746.2268,96.5447
1747.1910,96.6056
1748.1553,96.7683
1749.1195,97.0748
1750.0837,97.4925
1751.0480,97.8919
1752.0122,98.1558
1752.9764,98.2701
1753.9407,98.2948
1754.9049,98.2956
1755.8691,98.31
1756.8334,98.3472
1757.7976,98.4025
1758.7618,98.4711
1759.7261,98.5543
1760.6903,98.6552
1761.6545,98.7678
1762.6188,98.8727
1763.5830,98.9498
1764.5472,98.9963
1765.5115,99.0263
1766.4757,99.0534
1767.4399,99.0772
1768.4042,99.0846
1769.3684,99.066
1770.3326,99.0384
1771.2969,99.0511
1772.2611,99.1397
1773.2253,99.2656
1774.1896,99.3496
1775.1538,99.3614
1776.1180,99.3339
1777.0823,99.313
1778.0465,99.3208
1779.0107,99.3562
1779.9750,99.4118
1780.9392,99.4854
1781.9034,99.5773
1782.8677,99.681
1783.8319,99.7779
1784.7961,99.8424
1785.7604,99.859
1786.7246,99.8362
1787.6888,99.8011
1788.6531,99.7755
1789.6173,99.7581
1790.5815,99.7355
1791.5458,99.7115
1792.5100,99.7024
1793.4742,99.6962
1794.4385,99.6672
1795.4027,99.6231
1796.3669,99.5969
1797.3312,99.6084
1798.2954,99.6513
1799.2596,99.7084
1800.2239,99.7695
1801.1881,99.8321
1802.1523,99.8907
1803.1166,99.9362
1804.0808,99.9621
1805.0450,99.9662
1806.0093,99.9484
1806.9735,99.9103
1807.9377,99.8593
1808.9020,99.8129
1809.8662,99.7952
1810.8304,99.8208
1811.7947,99.8822
1812.7589,99.956
1813.7231,100.022
1814.6874,100.072
1815.6516,100.104
1816.6158,100.117
1817.5801,100.114
1818.5443,100.095
1819.5085,100.067
1820.4728,100.039
1821.4370,100.027
1822.4012,100.03
1823.3655,100.035
1824.3297,100.033
1825.2939,100.018
1826.2582,99.9897
1827.2224,99.9566
1828.1866,99.941
1829.1509,99.9671
1830.1151,100.037
1831.0793,100.116
1832.0436,100.162
1833.0078,100.165
1833.9720,100.145
1834.9363,100.123
1835.9005,100.112
1836.8647,100.109
1837.8290,100.111
1838.7932,100.124
1839.7574,100.155
1840.7217,100.205
1841.6859,100.256
1842.6501,100.28
1843.6144,100.267
1844.5786,100.234
1845.5428,100.198
1846.5071,100.166
1847.4713,100.151
1848.4355,100.169
1849.3998,100.22
1850.3640,100.288
1851.3282,100.347
1852.2925,100.382
1853.2567,100.392
1854.2209,100.385
1855.1852,100.37
1856.1494,100.35
1857.1136,100.33
1858.0779,100.313
1859.0421,100.305
1860.0063,100.308
1860.9706,100.313
1861.9348,100.306
1862.8990,100.275
1863.8633,100.216
1864.8275,100.132
1865.7917,100.033
1866.7560,99.944
1867.7202,99.9143
1868.6844,99.9795
1869.6487,100.114
1870.6129,100.246
1871.5771,100.331
1872.5414,100.371
1873.5056,100.389
1874.4698,100.401
1875.4341,100.408
1876.3983,100.411
1877.3625,100.409
1878.3268,100.405
1879.2910,100.401
1880.2552,100.397
1881.2195,100.388
1882.1837,100.373
1883.1479,100.351
1884.1122,100.327
1885.0764,100.305
1886.0406,100.289
1887.0049,100.281
1887.9691,100.279
1888.9333,100.283
1889.8976,100.288
1890.8618,100.283
1891.8260,100.266
1892.7903,100.239
1893.7545,100.217
1894.7188,100.212
1895.6830,100.23
1896.6472,100.265
1897.6115,100.305
1898.5757,100.333
1899.5399,100.344
1900.5042,100.34
1901.4684,100.328
1902.4326,100.312
1903.3969,100.293
1904.3611,100.265
1905.3253,100.225
1906.2896,100.173
1907.2538,100.121
1908.2180,100.089
1909.1823,100.089
1910.1465,100.121
1911.1107,100.168
1912.0750,100.209
1913.0392,100.238
1914.0034,100.256
1914.9677,100.269
1915.9319,100.278
1916.8961,100.275
1917.8604,100.252
1918.8246,100.2
1919.7888,100.126
1920.7531,100.051
1921.7173,100.002
1922.6815,100
1923.6458,100.045
1924.6100,100.114
1925.5742,100.181
1926.5385,100.225
1927.5027,100.245
1928.4669,100.247
1929.4312,100.238
1930.3954,100.225
1931.3596,100.212
1932.3239,100.204
1933.2881,100.202
1934.2523,100.206
1935.2166,100.215
1936.1808,100.22
1937.1450,100.216
1938.1093,100.197
1939.0735,100.164
1940.0377,100.118
1941.0020,100.069
1941.9662,100.032
1942.9304,100.02
1943.8947,100.035
1944.8589,100.069
1945.8231,100.111
1946.7874,100.156
1947.7516,100.197
1948.7158,100.231
1949.6801,100.251
1950.6443,100.259
1951.6085,100.257
1952.5728,100.252
1953.5370,100.251
1954.5012,100.257
1955.4655,100.269
1956.4297,100.283
1957.3939,100.295
1958.3582,100.304
1959.3224,100.309
1960.2866,100.31
1961.2509,100.305
1962.2151,100.291
1963.1793,100.265
1964.1436,100.232
1965.1078,100.2
1966.0720,100.185
1967.0363,100.196
1968.0005,100.232
1968.9647,100.282
1969.9290,100.33
1970.8932,100.363
1971.8574,100.381
1972.8217,100.386
1973.7859,100.385
1974.7501,100.384
1975.7144,100.385
1976.6786,100.388
1977.6428,100.391
1978.6071,100.394
1979.5713,100.397
1980.5355,100.399
1981.4998,100.4
1982.4640,100.398
1983.4282,100.392
1984.3925,100.38
1985.3567,100.361
1986.3209,100.335
1987.2852,100.305
1988.2494,100.274
1989.2136,100.247
1990.1779,100.229
1991.1421,100.227
1992.1063,100.246
1993.0706,100.279
1994.0348,100.317
1994.9990,100.348
1995.9633,100.367
1996.9275,100.376
1997.8917,100.378
1998.8560,100.38
1999.8202,100.385
2000.7844,100.394
2001.7487,100.403
2002.7129,100.409
2003.6771,100.409
2004.6414,100.402
2005.6056,100.39
2006.5698,100.378
2007.5341,100.37
2008.4983,100.368
2009.4625,100.371
2010.4268,100.376
2011.3910,100.377
2012.3552,100.368
2013.3195,100.348
2014.2837,100.319
2015.2479,100.288
2016.2122,100.266
2017.1764,100.262
2018.1406,100.276
2019.1049,100.301
2020.0691,100.326
2021.0333,100.345
2021.9976,100.355
2022.9618,100.359
2023.9260,100.36
2024.8903,100.362
2025.8545,100.366
2026.8187,100.37
2027.7830,100.374
2028.7472,100.376
2029.7114,100.375
2030.6757,100.373
2031.6399,100.369
2032.6041,100.365
2033.5684,100.361
2034.5326,100.357
2035.4968,100.353
2036.4611,100.346
2037.4253,100.334
2038.3895,100.316
2039.3538,100.297
2040.3180,100.282
2041.2822,100.277
2042.2465,100.284
2043.2107,100.298
2044.1749,100.314
2045.1392,100.325
2046.1034,100.328
2047.0676,100.325
2048.0320,100.318
2048.9961,100.311
2049.9604,100.307
2050.9246,100.306
2051.8889,100.308
2052.8530,100.311
2053.8174,100.312
2054.7815,100.313
2055.7458,100.311
2056.7100,100.307
2057.6743,100.302
2058.6384,100.295
2059.6028,100.285
2060.5669,100.269
2061.5313,100.249
2062.4954,100.228
2063.4597,100.213
2064.4238,100.209
2065.3882,100.218
2066.3523,100.237
2067.3167,100.259
2068.2808,100.276
2069.2451,100.286
2070.2092,100.289
2071.1736,100.289
2072.1377,100.288
2073.1021,100.288
2074.0662,100.29
2075.0305,100.29
2075.9946,100.287
2076.9590,100.281
2077.9231,100.275
2078.8875,100.268
2079.8516,100.264
2080.8159,100.261
2081.7800,100.259
2082.7444,100.256
2083.7085,100.25
2084.6729,100.241
2085.6370,100.231
2086.6013,100.22
2087.5654,100.211
2088.5298,100.204
2089.4939,100.201
2090.4583,100.202
2091.4224,100.207
2092.3867,100.213
2093.3508,100.218
2094.3152,100.222
2095.2793,100.224
2096.2437,100.223
2097.2078,100.221
2098.1721,100.217
2099.1362,100.211
2100.1006,100.202
2101.0647,100.193
2102.0291,100.185
2102.9932,100.179
2103.9575,100.175
2104.9216,100.175
2105.8860,100.177
2106.8501,100.179
2107.8145,100.181
2108.7786,100.18
2109.7429,100.175
2110.7070,100.167
2111.6714,100.157
2112.6355,100.147
2113.5999,100.141
2114.5640,100.14
2115.5283,100.142
2116.4924,100.147
2117.4568,100.152
2118.4209,100.155
2119.3853,100.154
2120.3494,100.152
2121.3137,100.149
2122.2778,100.146
2123.2422,100.143
2124.2063,100.142
2125.1707,100.14
2126.1348,100.139
2127.0991,100.14
2128.0632,100.144
2129.0276,100.149
2129.9917,100.153
2130.9561,100.155
2131.9202,100.151
2132.8845,100.142
2133.8486,100.13
2134.8130,100.119
2135.7771,100.113
2136.7415,100.115
2137.7056,100.124
2138.6699,100.137
2139.6340,100.15
2140.5984,100.16
2141.5625,100.165
2142.5269,100.168
2143.4910,100.17
2144.4553,100.173
2145.4194,100.177
2146.3838,100.182
2147.3479,100.187
2148.3123,100.189
2149.2764,100.188
2150.2407,100.186
2151.2048,100.182
2152.1692,100.179
2153.1333,100.178
2154.0977,100.178
2155.0618,100.179
2156.0261,100.181
2156.9902,100.183
2157.9546,100.185
2158.9187,100.187
2159.8831,100.19
2160.8472,100.193
2161.8115,100.196
2162.7756,100.198
2163.7400,100.2
2164.7041,100.2
2165.6685,100.199
2166.6326,100.197
2167.5969,100.194
2168.5610,100.191
2169.5254,100.189
2170.4895,100.187
2171.4539,100.187
2172.4180,100.188
2173.3823,100.189
2174.3464,100.191
2175.3108,100.192
2176.2749,100.194
2177.2393,100.198
2178.2034,100.202
2179.1677,100.206
2180.1318,100.208
2181.0962,100.206
2182.0603,100.201
2183.0247,100.192
2183.9888,100.184
2184.9531,100.179
2185.9172,100.177
2186.8816,100.179
2187.8457,100.183
2188.8101,100.19
2189.7742,100.197
2190.7385,100.203
2191.7026,100.209
2192.6670,100.213
2193.6311,100.214
2194.5955,100.213
2195.5596,100.209
2196.5239,100.205
2197.4880,100.202
2198.4524,100.199
2199.4165,100.199
2200.3809,100.199
2201.3450,100.199
2202.3093,100.199
2203.2734,100.197
2204.2378,100.195
2205.2019,100.193
2206.1663,100.191
2207.1304,100.192
2208.0947,100.195
2209.0588,100.198
2210.0232,100.2
2210.9873,100.198
2211.9517,100.192
2212.9158,100.183
2213.8801,100.174
2214.8442,100.167
2215.8086,100.162
2216.7727,100.159
2217.7371,100.158
2218.7012,100.156
2219.6655,100.153
2220.6296,100.149
2221.5940,100.144
2222.5581,100.14
2223.5225,100.136
2224.4866,100.133
2225.4509,100.131
2226.4150,100.128
2227.3794,100.124
2228.3435,100.119
2229.3079,100.111
2230.2720,100.101
2231.2363,100.09
2232.2004,100.079
2233.1648,100.07
2234.1289,100.062
2235.0933,100.057
2236.0574,100.052
2237.0217,100.048
2237.9858,100.042
2238.9502,100.034
2239.9143,100.023
2240.8787,100.011
2241.8428,99.9984
2242.8071,99.9876
2243.7712,99.9785
2244.7356,99.9708
2245.6997,99.9635
2246.6641,99.9559
2247.6282,99.9471
2248.5925,99.9362
2249.5566,99.9228
2250.5210,99.9065
2251.4851,99.8879
2252.4495,99.8687
2253.4136,99.8506
2254.3779,99.8351
2255.3420,99.8226
2256.3064,99.8122
2257.2705,99.8024
2258.2349,99.7921
2259.1990,99.7807
2260.1633,99.7685
2261.1274,99.7564
2262.0918,99.7451
2263.0559,99.7354
2264.0203,99.7276
2264.9844,99.7221
2265.9487,99.7182
2266.9128,99.715
2267.8772,99.7111
2268.8413,99.7055
2269.8057,99.6981
2270.7698,99.69
2271.7341,99.6829
2272.6982,99.6781
2273.6626,99.6766
2274.6267,99.6785
2275.5911,99.6838
2276.5552,99.6926
2277.5195,99.7045
2278.4836,99.7185
2279.4480,99.7329
2280.4121,99.7447
2281.3765,99.7509
2282.3406,99.7491
2283.3049,99.7371
2284.2690,99.7145
2285.2334,99.6819
2286.1975,99.6417
2287.1619,99.5973
2288.1260,99.552
2289.0903,99.5077
2290.0544,99.4644
2291.0188,99.4214
2291.9829,99.3792
2292.9473,99.3403
2293.9114,99.3086
2294.8757,99.2873
2295.8398,99.2766
2296.8042,99.2746
2297.7683,99.2793
2298.7327,99.2919
2299.6968,99.3165
2300.6611,99.3577
2301.6252,99.4157
2302.5896,99.4828
2303.5537,99.5448
2304.5181,99.5869
2305.4822,99.6018
2306.4465,99.5956
2307.4106,99.5884
2308.3750,99.6063
2309.3391,99.6695
2310.3035,99.7813
2311.2676,99.9259
2312.2319,100.076
2313.1960,100.206
2314.1604,100.308
2315.1245,100.391
2316.0889,100.473
2317.0530,100.576
2318.0173,100.705
2318.9814,100.846
2319.9458,100.962
2320.9099,101.006
2321.8743,100.938
2322.8384,100.752
2323.8027,100.488
2324.7668,100.221
2325.7312,100.029
2326.6953,99.9664
2327.6597,100.033
2328.6238,100.18
2329.5881,100.324
2330.5522,100.386
2331.5166,100.33
2332.4807,100.178
2333.4451,99.9885
2334.4092,99.8266
2335.3735,99.7257
2336.3376,99.6781
2337.3020,99.6445
2338.2661,99.5779
2339.2305,99.4518
2340.1946,99.2838
2341.1589,99.1471
2342.1230,99.1556
2343.0874,99.379
2344.0515,99.7122
2345.0159,99.9004
2345.9800,99.7874
2346.9443,99.4614
2347.9084,99.1434
2348.8728,99.0156
2349.8369,99.1343
2350.8013,99.4238
2351.7654,99.7135
2352.7297,99.8409
2353.6938,99.7663
2354.6582,99.5809
2355.6223,99.379
2356.5867,99.1648
2357.5508,98.9113
2358.5151,98.6504
2359.4792,98.4664
2360.4436,98.416
2361.4077,98.4885
2362.3721,98.6457
2363.3362,98.8669
2364.3005,99.1496
2365.2646,99.4832
2366.2290,99.8405
2367.1931,100.191
2368.1575,100.515
2369.1216,100.803
2370.0859,101.047
2371.0500,101.241
2372.0144,101.38
2372.9785,101.454
2373.9429,101.457
2374.9070,101.384
2375.8713,101.237
2376.8354,101.025
2377.7998,100.771
2378.7639,100.502
2379.7283,100.246
2380.6924,100.028
2381.6567,99.864
2382.6208,99.7588
2383.5852,99.7088
2384.5493,99.7026
2385.5137,99.7249
2386.4778,99.7601
2387.4421,99.7955
2388.4063,99.8232
2389.3706,99.8406
2390.3347,99.8493
2391.2991,99.8532
2392.2632,99.8558
2393.2275,99.8594
2394.1917,99.864
2395.1560,99.8687
2396.1201,99.8727
2397.0845,99.8762
2398.0486,99.8797
2399.0129,99.8839
2399.9771,99.8885
2400.9414,99.8915
2401.9055,99.8912
2402.8699,99.887
2403.8340,99.8802
2404.7983,99.8738
2405.7625,99.8705
2406.7268,99.8716
2407.6909,99.8759
2408.6553,99.8811
2409.6194,99.8852
2410.5837,99.8875
2411.5479,99.889
2412.5122,99.8909
2413.4763,99.8939
2414.4407,99.8973
2415.4048,99.8998
2416.3691,99.901
2417.3333,99.9017
2418.2976,99.9029
2419.2617,99.9053
2420.2261,99.908
2421.1902,99.9096
2422.1545,99.9089
2423.1187,99.9065
2424.0830,99.9046
2425.0471,99.9056
2426.0115,99.9107
2426.9756,99.9193
2427.9399,99.9291
2428.9041,99.9377
2429.8684,99.9442
2430.8325,99.9489
2431.7969,99.9524
2432.7610,99.9552
2433.7253,99.9566
2434.6895,99.9564
2435.6538,99.9551
2436.6179,99.9544
2437.5823,99.9568
2438.5464,99.9637
2439.5107,99.9749
2440.4749,99.9881
2441.4392,100
2442.4033,100.009
2443.3677,100.013
2444.3318,100.013
2445.2961,100.011
2446.2603,100.009
2447.2246,100.007
2448.1887,100.005
2449.1531,100.003
2450.1172,100.002
2451.0815,100.003
2452.0457,100.006
2453.0100,100.011
2453.9741,100.018
2454.9385,100.024
2455.9026,100.028
2456.8669,100.031
2457.8311,100.032
2458.7954,100.033
2459.7595,100.036
2460.7239,100.04
2461.6880,100.044
2462.6523,100.049
2463.6165,100.052
2464.5808,100.053
2465.5449,100.054
2466.5093,100.056
2467.4734,100.057
2468.4377,100.058
2469.4019,100.056
2470.3662,100.052
2471.3303,100.047
2472.2947,100.044
2473.2588,100.046
2474.2231,100.054
2475.1873,100.067
2476.1516,100.081
2477.1157,100.091
2478.0801,100.096
2479.0442,100.095
2480.0085,100.09
2480.9727,100.084
2481.9370,100.08
2482.9011,100.078
2483.8655,100.078
2484.8296,100.079
2485.7939,100.081
2486.7581,100.084
2487.7224,100.088
2488.6865,100.092
2489.6509,100.097
2490.6150,100.101
2491.5793,100.104
2492.5435,100.106
2493.5078,100.107
2494.4719,100.107
2495.4363,100.111
2496.4004,100.117
2497.3647,100.127
2498.3289,100.139
2499.2932,100.149
2500.2573,100.154
2501.2217,100.154
2502.1858,100.153
2503.1501,100.154
2504.1143,100.159
2505.0786,100.167
2506.0427,100.175
2507.0071,100.18
2507.9712,100.179
2508.9355,100.176
2509.8997,100.172
2510.8640,100.171
2511.8281,100.174
2512.7925,100.181
2513.7566,100.19
2514.7209,100.2
2515.6851,100.21
2516.6494,100.221
2517.6135,100.23
2518.5779,100.235
2519.5420,100.236
2520.5063,100.232
2521.4705,100.228
2522.4348,100.225
2523.3989,100.226
2524.3633,100.232
2525.3274,100.239
2526.2917,100.246
2527.2559,100.251
2528.2202,100.255
2529.1843,100.259
2530.1487,100.263
2531.1128,100.268
2532.0771,100.271
2533.0413,100.271
2534.0056,100.268
2534.9697,100.263
2535.9341,100.256
2536.8982,100.25
2537.8625,100.248
2538.8267,100.25
2539.7910,100.255
2540.7551,100.263
2541.7195,100.272
2542.6836,100.28
2543.6479,100.285
2544.6121,100.288
2545.5764,100.291
2546.5405,100.294
2547.5049,100.299
2548.4690,100.303
2549.4333,100.307
2550.3975,100.309
2551.3618,100.31
2552.3259,100.312
2553.2903,100.315
2554.2544,100.32
2555.2188,100.325
2556.1829,100.33
2557.1472,100.334
2558.1113,100.338
2559.0757,100.343
2560.0398,100.35
2561.0042,100.356
2561.9683,100.359
2562.9326,100.358
2563.8967,100.353
2564.8611,100.349
2565.8252,100.347
2566.7896,100.351
2567.7537,100.358
2568.7180,100.365
2569.6821,100.369
2570.6465,100.368
2571.6106,100.362
2572.5750,100.356
2573.5391,100.35
2574.5034,100.349
2575.4675,100.352
2576.4319,100.357
2577.3960,100.364
2578.3604,100.371
2579.3245,100.377
2580.2888,100.383
2581.2529,100.388
2582.2173,100.392
2583.1814,100.397
2584.1458,100.401
2585.1099,100.404
2586.0742,100.404
2587.0383,100.402
2588.0027,100.399
2588.9668,100.394
2589.9312,100.389
2590.8953,100.386
2591.8596,100.385
2592.8237,100.386
2593.7881,100.388
2594.7522,100.392
2595.7166,100.396
2596.6807,100.399
2597.6450,100.403
2598.6091,100.405
2599.5735,100.407
2600.5376,100.408
2601.5020,100.412
2602.4661,100.417
2603.4304,100.423
2604.3945,100.43
2605.3589,100.435
2606.3230,100.44
2607.2874,100.444
2608.2515,100.449
2609.2158,100.455
2610.1799,100.462
2611.1443,100.468
2612.1084,100.472
2613.0728,100.474
2614.0369,100.473
2615.0012,100.471
2615.9653,100.469
2616.9297,100.468
2617.8938,100.468
2618.8582,100.469
2619.8223,100.47
2620.7866,100.469
2621.7507,100.467
2622.7151,100.465
2623.6792,100.464
2624.6436,100.466
2625.6077,100.469
2626.5720,100.475
2627.5361,100.481
2628.5005,100.486
2629.4646,100.489
2630.4290,100.49
2631.3931,100.489
2632.3574,100.487
2633.3215,100.487
2634.2859,100.488
2635.2500,100.492
2636.2144,100.496
2637.1785,100.502
2638.1428,100.507
2639.1069,100.511
2640.0713,100.514
2641.0354,100.516
2641.9998,100.516
2642.9639,100.515
2643.9282,100.512
2644.8923,100.508
2645.8567,100.503
2646.8208,100.498
2647.7852,100.495
2648.7493,100.492
2649.7136,100.49
2650.6777,100.49
2651.6421,100.491
2652.6062,100.496
2653.5706,100.503
2654.5347,100.513
2655.4990,100.524
2656.4631,100.533
2657.4275,100.54
2658.3916,100.542
2659.3560,100.539
2660.3201,100.532
2661.2844,100.526
2662.2485,100.521
2663.2129,100.52
2664.1770,100.524
2665.1414,100.533
2666.1055,100.544
2667.0698,100.555
2668.0339,100.565
2668.9983,100.573
2669.9624,100.579
2670.9268,100.584
2671.8909,100.588
2672.8552,100.591
2673.8193,100.592
2674.7837,100.593
2675.7478,100.593
2676.7122,100.592
2677.6763,100.591
2678.6406,100.588
2679.6047,100.584
2680.5691,100.578
2681.5332,100.573
2682.4976,100.57
2683.4617,100.571
2684.4260,100.573
2685.3901,100.577
2686.3545,100.579
2687.3186,100.577
2688.2830,100.573
2689.2471,100.568
2690.2114,100.564
2691.1755,100.563
2692.1399,100.566
2693.1040,100.57
2694.0684,100.573
2695.0325,100.574
2695.9968,100.571
2696.9609,100.565
2697.9253,100.557
2698.8894,100.549
2699.8538,100.544
2700.8179,100.54
2701.7822,100.539
2702.7463,100.539
2703.7107,100.537
2704.6748,100.534
2705.6392,100.529
2706.6033,100.522
2707.5676,100.515
2708.5317,100.507
2709.4961,100.5
2710.4602,100.495
2711.4246,100.492
2712.3887,100.491
2713.3530,100.49
2714.3171,100.486
2715.2815,100.478
2716.2456,100.466
2717.2100,100.452
2718.1741,100.439
2719.1384,100.431
2720.1025,100.428
2721.0669,100.429
2722.0310,100.432
2722.9954,100.433
2723.9595,100.431
2724.9238,100.426
2725.8879,100.419
2726.8523,100.412
2727.8164,100.406
2728.7808,100.401
2729.7449,100.399
2730.7092,100.398
2731.6733,100.398
2732.6377,100.397
2733.6018,100.394
2734.5662,100.387
2735.5303,100.376
2736.4946,100.362
2737.4587,100.347
2738.4231,100.333
2739.3872,100.323
2740.3516,100.316
2741.3157,100.312
2742.2800,100.312
2743.2441,100.313
2744.2085,100.316
2745.1726,100.321
2746.1370,100.326
2747.1011,100.329
2748.0654,100.33
2749.0295,100.326
2749.9939,100.32
2750.9580,100.313
2751.9224,100.308
2752.8865,100.305
2753.8508,100.305
2754.8149,100.306
2755.7793,100.305
2756.7434,100.301
2757.7078,100.294
2758.6719,100.284
2759.6362,100.276
2760.6003,100.27
2761.5647,100.268
2762.5288,100.27
2763.4932,100.272
2764.4573,100.274
2765.4216,100.273
2766.3857,100.27
2767.3501,100.267
2768.3142,100.265
2769.2786,100.264
2770.2427,100.264
2771.2070,100.261
2772.1711,100.254
2773.1355,100.244
2774.0996,100.231
2775.0640,100.22
2776.0281,100.213
2776.9924,100.209
2777.9565,100.205
2778.9209,100.199
2779.8850,100.188
2780.8494,100.172
2781.8135,100.155
2782.7778,100.141
2783.7419,100.131
2784.7063,100.128
2785.6704,100.127
2786.6348,100.125
2787.5989,100.118
2788.5632,100.105
2789.5273,100.087
2790.4917,100.066
2791.4558,100.045
2792.4202,100.026
2793.3843,100.007
2794.3486,99.9878
2795.3127,99.9672
2796.2771,99.9451
2797.2412,99.9225
2798.2056,99.9008
2799.1697,99.8807
2800.1340,99.8617
2801.0981,99.843
2802.0625,99.8229
2803.0266,99.7989
2803.9910,99.7744
2804.9551,99.7504
2805.9194,99.7268
2806.8835,99.703
2807.8479,99.6774
2808.8120,99.6482
2809.7764,99.6142
2810.7405,99.5748
2811.7048,99.5307
2812.6689,99.4833
2813.6333,99.4341
2814.5974,99.3842
2815.5618,99.3338
2816.5259,99.2816
2817.4902,99.2251
2818.4543,99.1616
2819.4187,99.089
2820.3828,99.007
2821.3472,98.9164
2822.3113,98.8188
2823.2756,98.7158
2824.2397,98.6084
2825.2041,98.4978
2826.1682,98.3847
2827.1326,98.2696
2828.0967,98.1514
2829.0610,98.0276
2830.0251,97.8951
2830.9895,97.7519
2831.9536,97.5991
2832.9180,97.4414
2833.8821,97.2854
2834.8464,97.1373
2835.8105,97.0001
2836.7749,96.8736
2837.7390,96.7558
2838.7034,96.6449
2839.6675,96.5414
2840.6318,96.4473
2841.5959,96.3648
2842.5603,96.2936
2843.5244,96.23
2844.4888,96.1678
2845.4529,96.101
2846.4172,96.0259
2847.3813,95.9432
2848.3457,95.8572
2849.3098,95.7734
2850.2742,95.6952
2851.2383,95.6228
2852.2026,95.5527
2853.1667,95.4803
2854.1311,95.402
2855.0952,95.3164
2856.0596,95.2231
2857.0237,95.1213
2857.9880,95.0088
2858.9521,94.8825
2859.9165,94.7403
2860.8806,94.5829
2861.8450,94.4141
2862.8091,94.2404
2863.7734,94.0686
2864.7375,93.9047
2865.7019,93.7524
2866.6660,93.6134
2867.6304,93.4875
2868.5945,93.3732
2869.5588,93.2684
2870.5229,93.1707
2871.4873,93.0774
2872.4514,92.9851
2873.4158,92.8896
2874.3799,92.7859
2875.3442,92.6693
2876.3083,92.5358
2877.2727,92.3834
2878.2368,92.2129
2879.2012,92.0289
2880.1653,91.8402
2881.1296,91.6592
2882.0938,91.4989
2883.0581,91.3698
2884.0222,91.2764
2884.9866,91.215
2885.9507,91.175
2886.9150,91.1409
2887.8792,91.0971
2888.8435,91.0326
2889.8076,90.9458
2890.7720,90.846
2891.7361,90.749
2892.7004,90.6668
2893.6646,90.5964
2894.6289,90.5148
2895.5930,90.3877
2896.5574,90.1895
2897.5215,89.9239
2898.4858,89.6316
2899.4500,89.3769
2900.4143,89.2193
2901.3784,89.186
2902.3428,89.2608
2903.3069,89.3953
2904.2712,89.5342
2905.2354,89.6383
2906.1997,89.6943
2907.1638,89.7103
2908.1282,89.7043
2909.0923,89.6944
2910.0566,89.6946
2911.0208,89.7127
2911.9851,89.75
2912.9492,89.7999
2913.9136,89.8491
2914.8777,89.8816
2915.8420,89.8863
2916.8062,89.8612
2917.7705,89.8138
2918.7346,89.7565
2919.6990,89.7014
2920.6631,89.6565
2921.6274,89.625
2922.5916,89.6064
2923.5559,89.5972
2924.5200,89.5918
2925.4844,89.584
2926.4485,89.5686
2927.4128,89.5438
2928.3770,89.5115
2929.3413,89.4755
2930.3054,89.4396
2931.2698,89.4059
2932.2339,89.3756
2933.1982,89.3502
2934.1624,89.3323
2935.1267,89.3248
2936.0908,89.3286
2937.0552,89.3419
2938.0193,89.3601
2938.9836,89.379
2939.9478,89.3978
2940.9121,89.4206
2941.8762,89.4546
2942.8406,89.5059
2943.8047,89.5749
2944.7690,89.6536
2945.7332,89.7274
2946.6975,89.7802
2947.6616,89.801
2948.6260,89.7876
2949.5901,89.7458
2950.5544,89.6851
2951.5186,89.6138
2952.4829,89.5351
2953.4470,89.4487
2954.4114,89.3537
2955.3755,89.2516
2956.3398,89.1476
2957.3040,89.0484
2958.2683,88.9584
2959.2324,88.877
2960.1968,88.7981
2961.1609,88.7114
2962.1252,88.6073
2963.0894,88.4795
2964.0537,88.3283
2965.0178,88.16
2965.9822,87.9852
2966.9463,87.8163
2967.9106,87.6651
2968.8748,87.5425
2969.8391,87.4573
2970.8032,87.4156
2971.7676,87.4195
2972.7317,87.4657
2973.6960,87.5453
2974.6602,87.6459
2975.6245,87.7542
2976.5886,87.86
2977.5530,87.9576
2978.5171,88.0467
2979.4814,88.1289
2980.4456,88.2036
2981.4099,88.2632
2982.3740,88.2926
2983.3384,88.2756
2984.3025,88.2081
2985.2668,88.1108
2986.2310,88.0328
2987.1953,88.0381
2988.1594,88.1795
2989.1238,88.471
2990.0879,88.8765
2991.0522,89.3233
2992.0164,89.7327
2992.9807,90.0536
2993.9448,90.2795
2994.9092,90.4421
2995.8733,90.5879
2996.8376,90.7536
2997.8018,90.9525
2998.7661,91.1781
2999.7302,91.4159
3000.6946,91.6556
3001.6587,91.8963
3002.6230,92.1435
3003.5872,92.4037
3004.5515,92.6785
3005.5156,92.9635
3006.4800,93.2499
3007.4441,93.5281
3008.4084,93.7924
3009.3726,94.0434
3010.3369,94.2875
3011.3010,94.534
3012.2654,94.7895
3013.2295,95.0544
3014.1938,95.3225
3015.1580,95.584
3016.1223,95.8311
3017.0864,96.0612
3018.0508,96.2765
3019.0149,96.4813
3019.9792,96.679
3020.9434,96.8702
3021.9077,97.054
3022.8718,97.2296
3023.8362,97.3974
3024.8003,97.5586
3025.7646,97.7135
3026.7288,97.8607
3027.6931,97.9979
3028.6572,98.1242
3029.6216,98.2418
3030.5857,98.3559
3031.5500,98.4719
3032.5142,98.5929
3033.4785,98.7182
3034.4426,98.8437
3035.4070,98.9646
3036.3711,99.0769
3037.3354,99.1781
3038.2996,99.2667
3039.2639,99.3421
3040.2280,99.4044
3041.1924,99.4547
3042.1565,99.4949
3043.1208,99.5277
3044.0850,99.5558
3045.0493,99.5819
3046.0134,99.6085
3046.9778,99.6373
3047.9419,99.6678
3048.9063,99.6968
3049.8704,99.7191
3050.8347,99.7276
3051.7988,99.7225
3052.7632,99.7078
3053.7273,99.6909
3054.6917,99.6797
3055.6558,99.6794
3056.6201,99.6897
3057.5842,99.7051
3058.5486,99.7183
3059.5127,99.7223
3060.4771,99.7135
3061.4412,99.6926
3062.4055,99.6643
3063.3696,99.6359
3064.3340,99.6151
3065.2981,99.607
3066.2625,99.6125
3067.2266,99.6276
3068.1909,99.646
3069.1550,99.6622
3070.1194,99.673
3071.0835,99.6782
3072.0479,99.6787
3073.0120,99.6746
3073.9763,99.6653
3074.9404,99.6501
3075.9048,99.6302
3076.8689,99.6094
3077.8333,99.5929
3078.7974,99.5852
3079.7617,99.5882
3080.7258,99.5998
3081.6902,99.6157
3082.6543,99.6307
3083.6187,99.641
3084.5828,99.6454
3085.5471,99.6449
3086.5112,99.6419
3087.4756,99.6385
3088.4397,99.6354
3089.4041,99.6311
3090.3682,99.6226
3091.3325,99.6076
3092.2966,99.5862
3093.2610,99.5613
3094.2251,99.5373
3095.1895,99.5173
3096.1536,99.5018
3097.1179,99.4878
3098.0820,99.472
3099.0464,99.4534
3100.0105,99.4345
3100.9749,99.4204
3101.9390,99.4158
3102.9033,99.4221
3103.8674,99.4365
3104.8318,99.4531
3105.7959,99.4659
3106.7603,99.4705
3107.7244,99.4654
3108.6887,99.4515
3109.6528,99.4308
3110.6172,99.4058
3111.5813,99.3787
3112.5457,99.3514
3113.5098,99.3252
3114.4741,99.3009
3115.4382,99.2785
3116.4026,99.2579
3117.3667,99.2391
3118.3311,99.2223
3119.2952,99.2085
3120.2595,99.1982
3121.2236,99.1915
3122.1880,99.1883
3123.1521,99.1888
3124.1165,99.1936
3125.0806,99.2024
3126.0449,99.2126
3127.0090,99.2191
3127.9734,99.2152
3128.9375,99.1965
3129.9019,99.1644
3130.8660,99.1269
3131.8303,99.0961
3132.7944,99.082
3133.7588,99.0876
3134.7229,99.1078
3135.6873,99.132
3136.6514,99.1502
3137.6157,99.1573
3138.5798,99.1538
3139.5442,99.1434
3140.5083,99.1295
3141.4727,99.1136
3142.4368,99.0953
3143.4011,99.0743
3144.3652,99.0518
3145.3296,99.0308
3146.2937,99.0148
3147.2581,99.0063
3148.2222,99.005
3149.1865,99.0077
3150.1506,99.0094
3151.1150,99.0055
3152.0791,98.9939
3153.0435,98.9757
3154.0076,98.9547
3154.9719,98.9347
3155.9360,98.9181
3156.9004,98.9043
3157.8645,98.8916
3158.8289,98.8783
3159.7930,98.8643
3160.7573,98.8503
3161.7214,98.8369
3162.6858,98.8233
3163.6499,98.8082
3164.6143,98.7905
3165.5784,98.7713
3166.5427,98.7538
3167.5068,98.7416
3168.4712,98.7361
3169.4353,98.8254
3170.3997,98.8233
3171.3638,98.8131
3172.3281,98.7907
3173.2922,98.7565
3174.2566,98.7155
3175.2207,98.6751
3176.1851,98.6423
3177.1492,98.6204
3178.1135,98.6081
3179.0776,98.6002
3180.0420,98.5912
3181.0061,98.5783
3181.9705,98.5626
3182.9346,98.5475
3183.8989,98.5363
3184.8630,98.5292
3185.8274,98.5231
3186.7915,98.5141
3187.7559,98.4995
3188.7200,98.4805
3189.6843,98.4603
3190.6484,98.4419
3191.6128,98.4254
3192.5769,98.4081
3193.5413,98.3869
3194.5054,98.3611
3195.4697,98.334
3196.4338,98.311
3197.3982,98.2963
3198.3623,98.2903
3199.3267,98.2894
3200.2908,98.2887
3201.2551,98.2842
3202.2192,98.2744
3203.1836,98.2597
3204.1477,98.241
3205.1121,98.2192
3206.0762,98.1961
3207.0405,98.1741
3208.0046,98.1555
3208.9690,98.1408
3209.9331,98.128
3210.8975,98.1134
3211.8616,98.0947
3212.8259,98.0733
3213.7900,98.0534
3214.7544,98.0396
3215.7185,98.0325
3216.6829,98.0282
3217.6470,98.0204
3218.6113,98.0049
3219.5754,97.9821
3220.5398,97.9571
3221.5039,97.9357
3222.4683,97.9213
3223.4324,97.9142
3224.3967,97.9124
3225.3608,97.9145
3226.3252,97.9203
3227.2893,97.9297
3228.2537,97.9407
3229.2178,97.9492
3230.1821,97.9503
3231.1462,97.9413
3232.1106,97.9236
3233.0747,97.9019
3234.0391,97.8818
3235.0032,97.8664
3235.9675,97.8552
3236.9316,97.8451
3237.8960,97.8326
3238.8601,97.8165
3239.8245,97.7987
3240.7886,97.7825
3241.7529,97.771
3242.7170,97.7656
3243.6814,97.7651
3244.6455,97.7671
3245.6099,97.7686
3246.5740,97.7671
3247.5383,97.7614
3248.5024,97.7515
3249.4668,97.7378
3250.4309,97.7212
3251.3953,97.7025
3252.3594,97.6828
3253.3237,97.6634
3254.2878,97.646
3255.2522,97.6323
3256.2163,97.6238
3257.1807,97.6204
3258.1448,97.6197
3259.1091,97.6173
3260.0732,97.6087
3261.0376,97.5919
3262.0017,97.5694
3262.9661,97.5477
3263.9302,97.5337
3264.8945,97.5308
3265.8586,97.5359
3266.8230,97.5413
3267.7871,97.5384
3268.7515,97.5221
3269.7156,97.4938
3270.6799,97.4593
3271.6440,97.4263
3272.6084,97.4
3273.5725,97.3825
3274.5369,97.3733
3275.5010,97.3709
3276.4653,97.3737
3277.4294,97.3794
3278.3938,97.3843
3279.3579,97.3839
3280.3223,97.3745
3281.2864,97.3557
3282.2507,97.3311
3283.2148,97.3072
3284.1792,97.2902
3285.1433,97.283
3286.1077,97.2839
3287.0718,97.2875
3288.0361,97.2879
3289.0002,97.2813
3289.9646,97.2675
3290.9287,97.2497
3291.8931,97.2323
3292.8572,97.2186
3293.8215,97.2093
3294.7856,97.2021
3295.7500,97.1933
3296.7141,97.1795
3297.6785,97.1601
3298.6426,97.1383
3299.6069,97.1201
3300.5710,97.1106
3301.5354,97.1114
3302.4995,97.1183
3303.4639,97.1233
3304.4280,97.1187
3305.3923,97.1021
3306.3564,97.0772
3307.3208,97.0517
3308.2849,97.0319
3309.2493,97.0194
3310.2134,97.0108
3311.1777,97.0017
3312.1418,96.9905
3313.1062,96.9793
3314.0703,96.9723
3315.0347,96.9712
3315.9988,96.9737
3316.9631,96.9749
3317.9272,96.9708
3318.8916,96.9612
3319.8557,96.9491
3320.8201,96.9378
3321.7842,96.9278
3322.7485,96.9162
3323.7126,96.8989
3324.6770,96.8749
3325.6411,96.8469
3326.6055,96.8208
3327.5696,96.8015
3328.5339,96.7903
3329.4980,96.785
3330.4624,96.7823
3331.4265,96.7805
3332.3909,96.7798
3333.3550,96.7814
3334.3193,96.7857
3335.2834,96.791
3336.2478,96.7942
3337.2119,96.7929
3338.1763,96.7856
3339.1404,96.7724
3340.1047,96.7542
3341.0688,96.7329
3342.0332,96.7114
3342.9973,96.6936
3343.9617,96.6834
3344.9258,96.6826
3345.8901,96.6899
3346.8542,96.7007
3347.8186,96.709
3348.7827,96.7102
3349.7471,96.7021
3350.7112,96.6854
3351.6755,96.6628
3352.6396,96.6381
3353.6040,96.6154
3354.5681,96.5993
3355.5325,96.5929
3356.4966,96.596
3357.4609,96.6044
3358.4250,96.6111
3359.3894,96.6089
3360.3535,96.5948
3361.3179,96.5719
3362.2820,96.5479
3363.2463,96.532
3364.2104,96.5296
3365.1748,96.5398
3366.1389,96.5562
3367.1033,96.5703
3368.0674,96.5764
3369.0317,96.5743
3369.9958,96.5681
3370.9602,96.5629
3371.9243,96.5604
3372.8887,96.5584
3373.8528,96.5525
3374.8171,96.5406
3375.7813,96.5247
3376.7456,96.5108
3377.7097,96.5046
3378.6741,96.5069
3379.6382,96.5125
3380.6025,96.5136
3381.5667,96.5051
3382.5310,96.4885
3383.4951,96.4713
3384.4595,96.4623
3385.4236,96.4656
3386.3879,96.4781
3387.3521,96.4923
3388.3164,96.5014
3389.2805,96.5023
3390.2449,96.4963
3391.2090,96.4865
3392.1733,96.4756
3393.1375,96.4654
3394.1018,96.4582
3395.0659,96.4573
3396.0303,96.4661
3396.9944,96.4847
3397.9587,96.5083
3398.9229,96.5293
3399.8872,96.5414
3400.8513,96.5434
3401.8157,96.5394
3402.7798,96.5352
3403.7441,96.5344
3404.7083,96.5371
3405.6726,96.5413
3406.6367,96.546
3407.6011,96.5517
3408.5652,96.5601
3409.5295,96.5707
3410.4937,96.5807
3411.4580,96.5861
3412.4221,96.584
3413.3865,96.5741
3414.3506,96.5582
3415.3149,96.5391
3416.2791,96.5188
3417.2434,96.5
3418.2075,96.4869
3419.1719,96.4858
3420.1360,96.5022
3421.1003,96.5374
3422.0645,96.5857
3423.0288,96.6371
3423.9929,96.6817
3424.9573,96.7139
3425.9214,96.7336
3426.8857,96.7462
3427.8499,96.7592
3428.8142,96.7788
3429.7783,96.8066
3430.7427,96.8389
3431.7068,96.8694
3432.6711,96.893
3433.6353,96.9087
3434.5996,96.9194
3435.5637,96.9283
3436.5281,96.9362
3437.4922,96.9404
3438.4565,96.9368
3439.4207,96.9235
3440.3850,96.9021
3441.3491,96.8775
3442.3135,96.8551
3443.2776,96.8392
3444.2419,96.8329
3445.2061,96.84
3446.1704,96.8645
3447.1345,96.9071
3448.0989,96.9623
3449.0630,97.0197
3450.0273,97.0687
3450.9915,97.1038
3451.9558,97.1249
3452.9199,97.1364
3453.8843,97.1443
3454.8484,97.1525
3455.8127,97.1613
3456.7769,97.1675
3457.7412,97.1674
3458.7053,97.1604
3459.6697,97.15
3460.6338,97.143
3461.5981,97.1456
3462.5623,97.1597
3463.5266,97.1822
3464.4907,97.2074
3465.4551,97.2312
3466.4192,97.2532
3467.3835,97.275
3468.3477,97.2973
3469.3120,97.3176
3470.2761,97.3311
3471.2405,97.3355
3472.2046,97.3342
3473.1689,97.3357
3474.1331,97.3481
3475.0974,97.3727
3476.0615,97.4015
3477.0259,97.4212
3477.9900,97.4222
3478.9543,97.4043
3479.9185,97.3782
3480.8828,97.3591
3481.8469,97.3568
3482.8113,97.3698
3483.7754,97.3883
3484.7397,97.4041
3485.7039,97.4163
3486.6682,97.4317
3487.6323,97.4586
3488.5967,97.4995
3489.5608,97.5471
3490.5251,97.5885
3491.4893,97.6135
3492.4536,97.6208
3493.4177,97.6182
3494.3821,97.6173
3495.3462,97.625
3496.3105,97.6367
3497.2747,97.6382
3498.2390,97.6161
3499.2031,97.5673
3500.1675,97.5048
3501.1316,97.455
3502.0959,97.4462
3503.0601,97.4885
3504.0244,97.5645
3504.9885,97.6426
3505.9529,97.6996
3506.9170,97.7315
3507.8813,97.7498
3508.8455,97.7726
3509.8098,97.8133
3510.7739,97.8725
3511.7383,97.9387
3512.7024,97.9988
3513.6667,98.0457
3514.6309,98.0791
3515.5952,98.1011
3516.5593,98.1128
3517.5237,98.1123
3518.4878,98.0964
3519.4521,98.0633
3520.4163,98.0158
3521.3806,97.9629
3522.3447,97.9176
3523.3091,97.892
3524.2732,97.8919
3525.2375,97.9166
3526.2017,97.9641
3527.1660,98.0345
3528.1301,98.1273
3529.0945,98.2361
3530.0586,98.3464
3531.0229,98.4424
3531.9871,98.5149
3532.9514,98.5646
3533.9155,98.601
3534.8799,98.6388
3535.8440,98.6888
3536.8083,98.7505
3537.7725,98.8095
3538.7368,98.8471
3539.7009,98.8517
3540.6653,98.8242
3541.6294,98.7758
3542.5938,98.7266
3543.5579,98.7041
3544.5222,98.734
3545.4863,98.821
3546.4507,98.9374
3547.4148,99.0428
3548.3792,99.1146
3549.3433,99.1579
3550.3076,99.195
3551.2717,99.2498
3552.2361,99.3347
3553.2002,99.4428
3554.1646,99.5521
3555.1287,99.6412
3556.0930,99.7
3557.0571,99.7277
3558.0215,99.7262
3558.9856,99.6981
3559.9500,99.6478
3560.9141,99.5827
3561.8784,99.511
3562.8425,99.4375
3563.8069,99.3653
3564.7710,99.3159
3565.7354,99.3507
3566.6995,99.5268
3567.6638,99.7987
3568.6279,100.038
3569.5923,100.167
3570.5564,100.208
3571.5208,100.213
3572.4849,100.218
3573.4492,100.233
3574.4133,100.251
3575.3777,100.269
3576.3418,100.289
3577.3062,100.311
3578.2703,100.332
3579.2346,100.344
3580.1987,100.34
3581.1631,100.325
3582.1272,100.311
3583.0916,100.308
3584.0557,100.299
3585.0200,100.283
3585.9841,100.267
3586.9485,100.277
3587.9126,100.307
3588.8770,100.302
3589.8411,100.233
3590.8054,100.125
3591.7695,100.018
3592.7339,99.9341
3593.6980,99.8735
3594.6624,99.8273
3595.6265,99.7815
3596.5908,99.7282
3597.5549,99.676
3598.5193,99.6485
3599.4834,99.667
3600.4478,99.7315
3601.4119,99.8185
3602.3762,99.9003
3603.3403,99.9661
3604.3047,100.021
3605.2688,100.074
3606.2332,100.129
3607.1973,100.19
3608.1616,100.243
3609.1257,100.262
3610.0901,100.217
3611.0542,100.106
3612.0186,99.9581
3612.9829,99.8167
3613.9470,99.7198
3614.9114,99.6827
3615.8755,99.6985
3616.8398,99.7479
3617.8040,99.8125
3618.7683,99.874
3619.7324,99.8975
3620.6968,99.84
3621.6609,99.7016
3622.6252,99.5481
3623.5894,99.4663
3624.5537,99.5043
3625.5178,99.6405
3626.4822,99.8005
3627.4463,99.9249
3628.4106,100.011
3629.3748,100.041
3630.3391,99.9616
3631.3032,99.7885
3632.2676,99.6108
3633.2317,99.5028
3634.1960,99.4782
3635.1602,99.5038
3636.1245,99.5325
3637.0886,99.5325
3638.0530,99.495
3639.0171,99.4248
3639.9814,99.3305
3640.9456,99.2231
3641.9099,99.122
3642.8740,99.0536
3643.8384,99.0353
3644.8025,99.0491
3645.7668,99.0247
3646.7310,98.8857
3647.6953,98.6955
3648.6594,98.6947
3649.6238,98.9238
3650.5879,99.1019
3651.5522,99.0792
3652.5164,98.9425
3653.4807,98.8102
3654.4448,98.7269
3655.4092,98.6741
3656.3733,98.6149
3657.3376,98.5276
3658.3018,98.42
3659.2661,98.324
3660.2302,98.269
3661.1946,98.2581
3662.1587,98.2706
3663.1230,98.2868
3664.0872,98.3091
3665.0515,98.3529
3666.0156,98.4151
3666.9800,98.4552
3667.9441,98.4245
3668.9084,98.329
3669.8726,98.2341
3670.8369,98.1903
3671.8010,98.1987
3672.7654,98.2327
3673.7295,98.2602
3674.6938,98.2788
3675.6580,98.3213
3676.6223,98.3792
3677.5864,98.3953
3678.5508,98.3553
3679.5149,98.2935
3680.4792,98.2357
3681.4434,98.1835
3682.4077,98.1387
3683.3718,98.1228
3684.3362,98.1631
3685.3003,98.2572
3686.2646,98.3483
3687.2288,98.3541
3688.1931,98.2581
3689.1572,98.1541
3690.1216,98.1273
3691.0857,98.1565
3692.0500,98.1936
3693.0142,98.2291
3693.9785,98.2726
3694.9426,98.3309
3695.9070,98.4075
3696.8711,98.507
3697.8354,98.6332
3698.7996,98.7816
3699.7639,98.9374
3700.7280,99.0812
3701.6924,99.1923
3702.6565,99.254
3703.6208,99.2656
3704.5850,99.2508
3705.5493,99.243
3706.5134,99.2571
3707.4778,99.2775
3708.4419,99.2818
3709.4063,99.2999
3710.3704,99.4283
3711.3347,99.701
3712.2988,99.9862
3713.2632,100.133
3714.2273,100.122
3715.1917,100.027
3716.1558,99.9178
3717.1201,99.8233
3718.0842,99.7343
3719.0486,99.6297
3720.0127,99.5
3720.9771,99.3554
3721.9412,99.2206
3722.9055,99.1247
3723.8696,99.0889
3724.8340,99.1144
3725.7981,99.179
3726.7625,99.2538
3727.7266,99.3268
3728.6909,99.4024
3729.6550,99.4792
3730.6194,99.5298
3731.5835,99.5076
3732.5479,99.39
3733.5120,99.242
3734.4763,99.1998
3735.4404,99.3056
3736.4048,99.4284
3737.3689,99.4541
3738.3333,99.4268
3739.2974,99.4776
3740.2617,99.702
3741.2258,100.09
3742.1902,100.514
3743.1543,100.797
3744.1187,100.794
3745.0828,100.536
3746.0471,100.172
3747.0112,99.8574
3747.9756,99.6761
3748.9397,99.6405
3749.9041,99.7375
3750.8682,99.9174
3751.8325,100.04
3752.7966,99.9902
3753.7610,99.811
3754.7251,99.6241
3755.6895,99.5125
3756.6536,99.4928
3757.6179,99.5441
3758.5820,99.6335
3759.5464,99.721
3760.5105,99.773
3761.4749,99.7838
3762.4390,99.7725
3763.4033,99.7605
3764.3674,99.7584
3765.3318,99.7671
3766.2959,99.7844
3767.2603,99.8093
3768.2244,99.8438
3769.1887,99.8881
3770.1528,99.9321
3771.1172,99.955
3772.0813,99.9427
3773.0457,99.904
3774.0098,99.8638
3774.9741,99.8413
3775.9382,99.8365
3776.9026,99.8375
3777.8667,99.8368
3778.8311,99.832
3779.7952,99.8141
3780.7595,99.7707
3781.7236,99.7039
3782.6880,99.6345
3783.6521,99.5907
3784.6165,99.5939
3785.5806,99.6462
3786.5449,99.7278
3787.5090,99.8085
3788.4734,99.8665
3789.4375,99.8985
3790.4019,99.9143
3791.3660,99.922
3792.3303,99.9157
3793.2944,99.878
3794.2588,99.7973
3795.2229,99.6871
3796.1873,99.5844
3797.1514,99.5246
3798.1157,99.5143
3799.0798,99.5284
3800.0442,99.5374
3801.0083,99.5343
3801.9727,99.53
3802.9368,99.5409
3803.9011,99.5909
3804.8652,99.698
3805.8296,99.8467
3806.7937,99.9795
3807.7581,100.027
3808.7222,99.964
3809.6865,99.8449
3810.6506,99.762
3811.6150,99.7735
3812.5791,99.8596
3813.5435,99.9362
3814.5076,99.9184
3815.4719,99.7878
3816.4360,99.5982
3817.4004,99.4241
3818.3645,99.3184
3819.3289,99.305
3820.2930,99.375
3821.2573,99.4727
3822.2214,99.5171
3823.1858,99.4749
3824.1499,99.3877
3825.1143,99.3235
3826.0784,99.324
3827.0427,99.3885
3828.0068,99.485
3828.9712,99.5734
3829.9353,99.6262
3830.8997,99.6389
3831.8638,99.627
3832.8281,99.6117
3833.7922,99.6024
3834.7566,99.5857
3835.7207,99.5329
3836.6851,99.429
3837.6492,99.3
3838.6135,99.1997
3839.5776,99.1663
3840.5420,99.2039
3841.5061,99.2972
3842.4705,99.4175
3843.4346,99.5201
3844.3989,99.5585
3845.3630,99.5156
3846.3274,99.4269
3847.2915,99.3694
3848.2559,99.423
3849.2200,99.6238
3850.1843,99.9319
3851.1484,100.24
3852.1128,100.466
3853.0769,100.611
3854.0413,100.619
3855.0054,100.397
3855.9697,100.021
3856.9338,99.6683
3857.8982,99.4562
3858.8623,99.3951
3859.8267,99.4201
3860.7908,99.443
3861.7551,99.4137
3862.7192,99.3567
3863.6836,99.3367
3864.6477,99.3878
3865.6121,99.49
3866.5762,99.5962
3867.5405,99.66
3868.5046,99.6541
3869.4690,99.5888
3870.4331,99.5121
3871.3975,99.4726
3872.3616,99.4828
3873.3259,99.5244
3874.2900,99.5778
3875.2544,99.6347
3876.2185,99.6896
3877.1829,99.7271
3878.1470,99.725
3879.1113,99.6741
3880.0754,99.5973
3881.0398,99.5423
3882.0039,99.5503
3882.9683,99.6306
3883.9324,99.7558
3884.8967,99.8739
3885.8608,99.934
3886.8252,99.9163
3887.7893,99.8405
3888.7537,99.7443
3889.7178,99.658
3890.6821,99.5998
3891.6462,99.5762
3892.6106,99.5729
3893.5747,99.5697
3894.5391,99.5681
3895.5032,99.5846
3896.4675,99.6201
3897.4316,99.6506
3898.3960,99.6497
3899.3601,99.6136
3900.3245,99.5602
3901.2886,99.5106
3902.2529,99.4818
3903.2170,99.4862
3904.1814,99.5223
3905.1455,99.572
3906.1099,99.6199
3907.0740,99.6662
3908.0383,99.7171
3909.0024,99.771
3909.9668,99.8164
3910.9309,99.8411
3911.8953,99.8423
3912.8594,99.8263
3913.8237,99.8028
3914.7878,99.7792
3915.7522,99.7608
3916.7163,99.7511
3917.6807,99.7448
3918.6448,99.7264
3919.6091,99.6823
3920.5732,99.6161
3921.5376,99.546
3922.5017,99.4936
3923.4661,99.4733
3924.4302,99.4827
3925.3945,99.5018
3926.3586,99.5068
3927.3230,99.4874
3928.2871,99.451
3929.2515,99.4167
3930.2156,99.4102
3931.1799,99.4527
3932.1440,99.5431
3933.1084,99.6528
3934.0725,99.7465
3935.0369,99.8046
3936.0010,99.8261
3936.9653,99.8178
3937.9294,99.786
3938.8938,99.7351
3939.8579,99.6721
3940.8223,99.6105
3941.7864,99.566
3942.7507,99.5469
3943.7148,99.5463
3944.6792,99.5493
3945.6433,99.5435
3946.6077,99.5267
3947.5718,99.5074
3948.5361,99.5001
3949.5002,99.5157
3950.4646,99.5528
3951.4287,99.5999
3952.3931,99.6448
3953.3572,99.6803
3954.3215,99.7041
3955.2856,99.7159
3956.2500,99.7163
3957.2141,99.7063
3958.1785,99.6892
3959.1426,99.6714
3960.1069,99.6626
3961.0710,99.6714
3962.0354,99.7005
3962.9995,99.7433
3963.9639,99.787
3964.9280,99.8185
3965.8923,99.8304
3966.8564,99.8221
3967.8208,99.7981
3968.7849,99.7649
3969.7493,99.7289
3970.7134,99.6953
3971.6777,99.6699
3972.6418,99.6583
3973.6062,99.6652
3974.5703,99.6909
3975.5347,99.7301
3976.4988,99.7729
3977.4631,99.8087
3978.4272,99.8299
3979.3916,99.8343
3980.3557,99.8248
3981.3201,99.8076
3982.2842,99.79
3983.2485,99.7775
3984.2126,99.7724
3985.1770,99.7735
3986.1411,99.7772
3987.1055,99.7787
3988.0696,99.7729
3989.0339,99.7564
3989.9980,99.7298
3990.9624,99.6988
3991.9265,99.6736
3992.8909,99.6654
3993.8550,99.6805
3994.8193,99.7155
3995.7834,99.7574
3996.7478,99.7896
3997.7119,99.8004
3998.6763,99.79
3999.6404,99.7681
4000.6047,99.5464

##### Extended Information
[Comments]
Sample name
Comment
User
Division
Company,HANKYONG

[Detailed Information]
Creation date,4/24/2024 2:16 PM

Data array type,Linear data array
Horizontal axis,Wavenumber [cm-1]
Vertical axis,%T
Start,649.893 cm-1
End,4000.6 cm-1
Data interval,0.964233 cm-1
Data points,3476    

[Measurement Information]
Model Name,FT/IR-4700typeA
Serial Number,D056761788

Accessory,ATR PRO ONE
Accessory S/N,C174761809
Incident angle,45 deg

Measurement Date,4/24/2024 2:15 PM

Light Source,Standard
Detector,TGS
Accumulation,32
Resolution,4 cm-1
Zero Filling,On
Apodization,Cosine
Gain,Auto (4)
Aperture,Auto (7.1 mm)
Scanning Speed,Auto (2 mm/sec)
Filter,Auto (30000 Hz)

