TITLE,
DATA TYPE,INFRARED SPECTRUM
ORIGIN,JASCO
OWNER,
DATE,24/04/24
TIME,14:20:03
SPECTROMETER/DATA SYSTEM,
LOCALE,1033
RESOLUTION,
DELTAX,0.964233
XUNITS,1/CM
YUNITS,TRANSMITTANCE
FIRSTX,  649.8934
LASTX, 4000.6047
NPOINTS,    3476
FIRSTY,    97.83456
MAXY,   101.45826
MINY,    65.40825
XYDATA
649.8934,97.8346
650.8576,97.8632
651.8218,97.8898
652.7861,97.9196
653.7503,97.9637
654.7145,98.038
655.6788,98.1435
656.6430,98.2606
657.6072,98.3638
658.5715,98.4484
659.5357,98.542
660.4999,98.6842
661.4642,98.8853
662.4284,99.1001
663.3926,99.2412
664.3569,99.2081
665.3211,98.9052
666.2853,98.2759
667.2496,97.4209
668.2138,96.7428
669.1780,96.688
670.1423,97.1896
671.1065,97.8353
672.0707,98.3466
673.0350,98.6448
673.9992,98.7504
674.9634,98.7255
675.9277,98.6495
676.8919,98.5931
677.8561,98.5932
678.8204,98.6498
679.7846,98.743
680.7488,98.8502
681.7131,98.952
682.6773,99.034
683.6415,99.0903
684.6058,99.127
685.5700,99.1607
686.5342,99.2077
687.4985,99.2704
688.4627,99.331
689.4269,99.3577
690.3912,99.3233
691.3554,99.2316
692.3196,99.1379
693.2839,99.1329
694.2481,99.2709
695.2123,99.5176
696.1766,99.7913
697.1408,100.027
698.1050,100.197
699.0693,100.302
700.0335,100.36
700.9977,100.395
701.9620,100.427
702.9262,100.468
703.8904,100.524
704.8547,100.599
705.8189,100.694
706.7831,100.799
707.7474,100.895
708.7116,100.966
709.6758,101.001
710.6401,101.009
711.6043,101.006
712.5685,101.005
713.5328,101
714.4970,100.964
715.4612,101.029
716.4255,100.834
717.3897,100.579
718.3539,100.319
719.3182,100.125
720.2824,100.046
721.2466,100.081
722.2109,100.185
723.1751,100.294
724.1393,100.36
725.1036,100.369
726.0678,100.33
727.0320,100.265
727.9963,100.196
728.9605,100.134
729.9247,100.088
730.8890,100.059
731.8532,100.046
732.8174,100.046
733.7817,100.055
734.7459,100.065
735.7101,100.071
736.6744,100.069
737.6386,100.057
738.6028,100.033
739.5671,99.997
740.5313,99.951
741.4955,99.9156
742.4598,99.9039
743.4240,99.8904
744.3882,99.8762
745.3525,99.8624
746.3167,99.8509
747.2809,99.8436
748.2452,99.8398
749.2094,99.8355
750.1736,99.8237
751.1379,99.7991
752.1021,99.7613
753.0663,99.715
754.0306,99.6668
754.9948,99.6207
755.9590,99.5759
756.9233,99.5284
757.8875,99.4744
758.8517,99.414
759.8160,99.3513
760.7802,99.2924
761.7444,99.243
762.7087,99.2063
763.6729,99.183
764.6371,99.1711
765.6014,99.1666
766.5656,99.1643
767.5298,99.1601
768.4941,99.1529
769.4583,99.1454
770.4225,99.1414
771.3868,99.1428
772.3510,99.1457
773.3152,99.1418
774.2795,99.1219
775.2437,99.0819
776.2079,99.027
777.1722,98.9698
778.1364,98.9252
779.1006,98.9024
780.0649,98.9003
781.0291,98.9078
781.9933,98.9101
782.9576,98.8962
783.9218,98.8638
784.8860,98.8196
785.8503,98.7733
786.8145,98.7301
787.7787,98.6867
788.7430,98.6327
789.7072,98.5577
790.6714,98.4582
791.6357,98.3393
792.5999,98.2105
793.5641,98.0775
794.5284,97.9361
795.4926,97.7745
796.4568,97.5819
797.4211,97.3579
798.3853,97.1164
799.3495,96.8807
800.3138,96.672
801.2780,96.4997
802.2422,96.3601
803.2065,96.2427
804.1707,96.1402
805.1349,96.053
806.0992,95.9878
807.0634,95.9489
808.0276,95.932
808.9919,95.9236
809.9561,95.9072
810.9203,95.872
811.8846,95.8177
812.8488,95.7529
813.8130,95.6885
814.7773,95.631
815.7415,95.5795
816.7057,95.5281
817.6700,95.4711
818.6342,95.4071
819.5984,95.3395
820.5627,95.2749
821.5269,95.2184
822.4911,95.1724
823.4554,95.1355
824.4196,95.1057
825.3839,95.0817
826.3481,95.0647
827.3123,95.0573
828.2766,95.0619
829.2408,95.0788
830.2050,95.1059
831.1693,95.14
832.1335,95.1785
833.0977,95.2209
834.0620,95.2693
835.0262,95.3278
835.9904,95.4001
836.9547,95.4883
837.9189,95.5904
838.8831,95.7005
839.8474,95.8098
840.8116,95.9089
841.7758,95.991
842.7401,96.0545
843.7043,96.1022
844.6685,96.1397
845.6328,96.1711
846.5970,96.1971
847.5612,96.2148
848.5255,96.2203
849.4897,96.2113
850.4539,96.1889
851.4182,96.1569
852.3824,96.1197
853.3466,96.0804
854.3109,96.0408
855.2751,96.0027
856.2393,95.9688
857.2036,95.9423
858.1678,95.9254
859.1320,95.9163
860.0963,95.9095
861.0605,95.8969
862.0247,95.8712
862.9890,95.8274
863.9532,95.7625
864.9174,95.672
865.8817,95.5475
866.8459,95.3765
867.8101,95.1461
868.7744,94.8489
869.7386,94.4868
870.7028,94.0702
871.6671,93.6135
872.6313,93.1307
873.5955,92.6339
874.5598,92.1388
875.5240,91.6716
876.4882,91.2726
877.4525,90.9909
878.4167,90.872
879.3809,90.9432
880.3452,91.2052
881.3094,91.6341
882.2736,92.1913
883.2379,92.8329
884.2021,93.516
885.1663,94.1983
886.1306,94.8385
887.0948,95.4004
888.0590,95.8612
889.0233,96.219
889.9875,96.4919
890.9517,96.7074
891.9160,96.8887
892.8802,97.0436
893.8444,97.1653
894.8087,97.2404
895.7729,97.2605
896.7371,97.2272
897.7014,97.1513
898.6656,97.0457
899.6298,96.9209
900.5941,96.7829
901.5583,96.6355
902.5225,96.4834
903.4868,96.3324
904.4510,96.189
905.4152,96.0574
906.3795,95.9398
907.3437,95.837
908.3079,95.7506
909.2722,95.6847
910.2364,95.6462
911.2006,95.6431
912.1649,95.6827
913.1291,95.7695
914.0933,95.9043
915.0576,96.0848
916.0218,96.3065
916.9860,96.5643
917.9503,96.8518
918.9145,97.1619
919.8787,97.4863
920.8430,97.8163
921.8072,98.1433
922.7714,98.4594
923.7357,98.7567
924.6999,99.0268
925.6641,99.2609
926.6284,99.4524
927.5926,99.5982
928.5568,99.7007
929.5211,99.765
930.4853,99.7965
931.4495,99.7979
932.4138,99.7695
933.3780,99.7124
934.3422,99.6314
935.3065,99.535
936.2707,99.4321
937.2349,99.3279
938.1992,99.2215
939.1634,99.1075
940.1276,98.9814
941.0919,98.8711
942.0561,98.8177
943.0203,98.7628
943.9846,98.7088
944.9488,98.6518
945.9130,98.5835
946.8773,98.4967
947.8415,98.3896
948.8057,98.2669
949.7700,98.1362
950.7342,98.0042
951.6984,97.8724
952.6627,97.7381
953.6269,97.596
954.5911,97.4419
955.5554,97.2741
956.5196,97.0931
957.4838,96.9013
958.4481,96.7023
959.4123,96.5018
960.3765,96.3067
961.3408,96.1244
962.3050,95.9607
963.2692,95.818
964.2335,95.695
965.1977,95.587
966.1619,95.4876
967.1262,95.3906
968.0904,95.2913
969.0546,95.187
970.0189,95.0782
970.9831,94.9676
971.9473,94.8591
972.9116,94.756
973.8758,94.6589
974.8400,94.5648
975.8043,94.4676
976.7685,94.3601
977.7327,94.2361
978.6970,94.0925
979.6612,93.9291
980.6254,93.7484
981.5897,93.5528
982.5539,93.3436
983.5181,93.1208
984.4824,92.8833
985.4466,92.6313
986.4108,92.366
987.3751,92.0899
988.3393,91.8043
989.3035,91.5085
990.2678,91.1996
991.2320,90.8734
992.1962,90.5257
993.1605,90.1535
994.1247,89.7552
995.0889,89.3301
996.0532,88.8782
997.0174,88.3997
997.9816,87.8941
998.9459,87.359
999.9101,86.7908
1000.8743,86.1854
1001.8386,85.5411
1002.8028,84.8599
1003.7670,84.1472
1004.7313,83.4094
1005.6955,82.6521
1006.6597,81.8795
1007.6240,81.0962
1008.5882,80.3085
1009.5524,79.5249
1010.5167,78.7542
1011.4809,78.0044
1012.4451,77.2816
1013.4094,76.5899
1014.3736,75.931
1015.3378,75.3039
1016.3021,74.7057
1017.2663,74.1333
1018.2305,73.5854
1019.1948,73.0611
1020.1590,72.5535
1021.1232,72.0434
1022.0875,71.5008
1023.0517,70.8983
1024.0160,70.2317
1024.9802,69.5341
1025.9445,68.871
1026.9087,68.3135
1027.8729,67.9044
1028.8372,67.6356
1029.8014,67.4522
1030.7656,67.2804
1031.7299,67.0624
1032.6941,66.7789
1033.6583,66.4502
1034.6226,66.1197
1035.5868,65.8319
1036.5510,65.6166
1037.5153,65.4826
1038.4795,65.4202
1039.4437,65.4082
1040.4080,65.4241
1041.3722,65.4529
1042.3364,65.4941
1043.3007,65.5625
1044.2649,65.6815
1045.2291,65.874
1046.1934,66.1559
1047.1576,66.534
1048.1218,67.0103
1049.0861,67.5844
1050.0503,68.2509
1051.0145,68.9931
1051.9788,69.778
1052.9430,70.561
1053.9072,71.3018
1054.8715,71.9819
1055.8357,72.6132
1056.7999,73.2261
1057.7642,73.8414
1058.7284,74.4393
1059.6926,74.95
1060.6569,75.2748
1061.6211,75.3348
1062.5853,75.1201
1063.5496,74.7101
1064.5138,74.2478
1065.4780,73.8785
1066.4423,73.6833
1067.4065,73.6452
1068.3707,73.666
1069.3350,73.6214
1070.2992,73.4223
1071.2634,73.0503
1072.2277,72.5527
1073.1919,72.0084
1074.1561,71.4905
1075.1204,71.0441
1076.0846,70.6855
1077.0488,70.4138
1078.0131,70.2229
1078.9773,70.1062
1079.9415,70.0566
1080.9058,70.0647
1081.8700,70.119
1082.8342,70.208
1083.7985,70.3223
1084.7627,70.4562
1085.7269,70.6099
1086.6912,70.7901
1087.6554,71.0083
1088.6196,71.2742
1089.5839,71.5881
1090.5481,71.9352
1091.5123,72.2873
1092.4766,72.6119
1093.4408,72.8829
1094.4050,73.0875
1095.3693,73.2251
1096.3335,73.3011
1097.2977,73.3194
1098.2620,73.2795
1099.2262,73.1769
1100.1904,73.0067
1101.1547,72.7664
1102.1189,72.4579
1103.0831,72.0893
1104.0474,71.6754
1105.0116,71.2377
1105.9758,70.802
1106.9401,70.394
1107.9043,70.0356
1108.8685,69.7436
1109.8328,69.5318
1110.7970,69.4144
1111.7612,69.4072
1112.7255,69.5259
1113.6897,69.7819
1114.6539,70.1788
1115.6182,70.7115
1116.5824,71.3688
1117.5466,72.1376
1118.5109,73.006
1119.4751,73.9649
1120.4393,75.0067
1121.4036,76.1244
1122.3678,77.3106
1123.3320,78.5575
1124.2963,79.8577
1125.2605,81.2044
1126.2247,82.5912
1127.1890,84.0104
1128.1532,85.4514
1129.1174,86.8985
1130.0817,88.3312
1131.0459,89.7246
1132.0101,91.0523
1132.9744,92.2888
1133.9386,93.4121
1134.9028,94.4043
1135.8671,95.2523
1136.8313,95.9481
1137.7955,96.4894
1138.7598,96.8815
1139.7240,97.1367
1140.6882,97.2735
1141.6525,97.3128
1142.6167,97.2753
1143.5809,97.179
1144.5452,97.0397
1145.5094,96.873
1146.4736,96.6952
1147.4379,96.5231
1148.4021,96.3721
1149.3663,96.2536
1150.3306,96.1748
1151.2948,96.1394
1152.2590,96.1496
1153.2233,96.2075
1154.1875,96.3144
1155.1517,96.4698
1156.1160,96.6705
1157.0802,96.9106
1158.0444,97.1821
1159.0087,97.4757
1159.9729,97.7798
1160.9371,98.0802
1161.9014,98.3607
1162.8656,98.6058
1163.8298,98.8042
1164.7941,98.9517
1165.7583,99.0512
1166.7225,99.1092
1167.6868,99.1243
1168.6510,98.999
1169.6152,98.84
1170.5795,98.643
1171.5437,98.4035
1172.5079,98.1183
1173.4722,97.786
1174.4364,97.406
1175.4006,96.978
1176.3649,96.503
1177.3291,95.9837
1178.2933,95.4257
1179.2576,94.8372
1180.2218,94.228
1181.1860,93.6079
1182.1503,92.987
1183.1145,92.375
1184.0787,91.7814
1185.0430,91.2143
1186.0072,90.6784
1186.9714,90.1727
1187.9357,89.6906
1188.8999,89.2217
1189.8641,88.7558
1190.8284,88.2861
1191.7926,87.8098
1192.7568,87.3269
1193.7211,86.8376
1194.6853,86.3409
1195.6495,85.8342
1196.6138,85.3152
1197.5780,84.7831
1198.5422,84.2394
1199.5065,83.7515
1200.4707,83.1848
1201.4349,82.6149
1202.3992,82.0458
1203.3634,81.483
1204.3276,80.9343
1205.2919,80.4092
1206.2561,79.9179
1207.2203,79.4695
1208.1846,79.0723
1209.1488,78.7332
1210.1130,78.4581
1211.0773,78.2508
1212.0415,78.1121
1213.0057,78.0388
1213.9700,78.0261
1214.9342,78.0701
1215.8984,78.1697
1216.8627,78.3265
1217.8269,78.5413
1218.7911,78.8094
1219.7554,79.1206
1220.7196,79.4618
1221.6838,79.8214
1222.6481,80.1923
1223.6123,80.5713
1224.5765,80.9558
1225.5408,81.3412
1226.5050,81.7205
1227.4692,82.0857
1228.4335,82.4311
1229.3977,82.7544
1230.3619,83.0578
1231.3262,83.3477
1232.2904,83.6331
1233.2546,83.921
1234.2189,84.2098
1235.1831,84.4843
1236.1473,84.7178
1237.1116,84.8839
1238.0758,84.9741
1239.0400,85.0106
1240.0043,85.0426
1240.9685,85.1257
1241.9327,85.2937
1242.8970,85.5398
1243.8612,85.8196
1244.8254,86.0747
1245.7897,86.2627
1246.7539,86.3755
1247.7181,86.4366
1248.6824,86.4813
1249.6466,86.5359
1250.6108,86.606
1251.5751,86.6794
1252.5393,86.7364
1253.5035,86.7606
1254.4678,86.7445
1255.4320,86.6892
1256.3962,86.6016
1257.3605,86.4915
1258.3247,86.3707
1259.2889,86.2505
1260.2532,86.1397
1261.2174,86.0434
1262.1816,85.9628
1263.1459,85.8975
1264.1101,85.8481
1265.0743,85.8173
1266.0386,85.8103
1267.0028,85.8343
1267.9670,85.8978
1268.9313,86.0092
1269.8955,86.1741
1270.8597,86.3929
1271.8240,86.6589
1272.7882,86.9604
1273.7524,87.2844
1274.7167,87.621
1275.6809,87.9654
1276.6451,88.3164
1277.6094,88.6739
1278.5736,89.0365
1279.5378,89.4006
1280.5021,89.7605
1281.4663,90.1096
1282.4305,90.4412
1283.3948,90.7498
1284.3590,91.0323
1285.3232,91.2888
1286.2875,91.5225
1287.2517,91.7375
1288.2159,91.9364
1289.1802,92.1181
1290.1444,92.2776
1291.1086,92.4092
1292.0729,92.509
1293.0371,92.5777
1294.0013,92.62
1294.9656,92.6433
1295.9298,92.6543
1296.8940,92.657
1297.8583,92.652
1298.8225,92.6367
1299.7867,92.6078
1300.7510,92.563
1301.7152,92.502
1302.6794,92.428
1303.6437,92.3468
1304.6079,92.2644
1305.5721,92.1842
1306.5364,92.1047
1307.5006,92.02
1308.4648,91.9228
1309.4291,91.8084
1310.3933,91.6788
1311.3575,91.5416
1312.3218,91.4069
1313.2860,91.2814
1314.2502,91.1657
1315.2145,91.0567
1316.1787,90.9524
1317.1429,90.8565
1318.1072,90.7777
1319.0714,90.7239
1320.0356,90.696
1320.9999,90.6873
1321.9641,90.6895
1322.9283,90.7
1323.8926,90.7251
1324.8568,90.7772
1325.8210,90.869
1326.7853,91.0082
1327.7495,91.1958
1328.7137,91.4286
1329.6780,91.7029
1330.6422,92.0139
1331.6064,92.3513
1332.5707,92.6965
1333.5349,93.0244
1334.4991,93.3137
1335.4634,93.5592
1336.4276,93.7837
1337.3918,94.0408
1338.3561,94.3969
1339.3203,94.8848
1340.2845,95.4668
1341.2488,96.0554
1342.2130,96.5751
1343.1772,96.997
1344.1415,97.3297
1345.1057,97.5968
1346.0699,97.8213
1347.0342,98.02
1347.9984,98.2011
1348.9626,98.3647
1349.9269,98.5048
1350.8911,98.6145
1351.8553,98.6913
1352.8196,98.7397
1353.7838,98.7688
1354.7480,98.7853
1355.7123,98.7864
1356.6765,98.7602
1357.6407,98.6917
1358.6050,98.5714
1359.5692,98.4004
1360.5334,98.1975
1361.4977,98.0001
1362.4619,97.842
1363.4261,97.7204
1364.3904,97.5981
1365.3546,97.4419
1366.3188,97.2466
1367.2831,97.0296
1368.2473,96.8151
1369.2115,96.6209
1370.1758,96.4538
1371.1400,96.3145
1372.1042,96.2107
1373.0685,96.165
1374.0327,96.2051
1374.9969,96.3348
1375.9612,96.5207
1376.9254,96.7201
1377.8896,96.915
1378.8539,97.1137
1379.8181,97.3281
1380.7823,97.5546
1381.7466,97.7738
1382.7108,97.9696
1383.6750,98.1476
1384.6393,98.3382
1385.6035,98.5808
1386.5677,98.8848
1387.5320,99.187
1388.4962,99.3687
1389.4604,99.3452
1390.4247,99.1219
1391.3889,98.7719
1392.3531,98.3965
1393.3174,98.05
1394.2816,97.8831
1395.2458,97.9491
1396.2101,98.1819
1397.1743,98.4358
1398.1385,98.5764
1399.1028,98.5439
1400.0670,98.3499
1401.0313,98.0397
1401.9955,97.6604
1402.9597,97.2465
1403.9240,96.8217
1404.8882,96.4025
1405.8524,95.9951
1406.8167,95.5922
1407.7809,95.179
1408.7451,94.7434
1409.7094,94.2784
1410.6736,93.7808
1411.6378,93.2533
1412.6021,92.7051
1413.5663,92.149
1414.5305,91.5918
1415.4948,91.0265
1416.4590,90.4381
1417.4232,89.8348
1418.3875,89.2685
1419.3517,88.7852
1420.3159,88.3721
1421.2802,88.0036
1422.2444,87.6952
1423.2086,87.4863
1424.1729,87.3993
1425.1371,87.4251
1426.1013,87.5402
1427.0656,87.7334
1428.0298,88.0149
1428.9940,88.3944
1429.9583,88.8478
1430.9225,89.3126
1431.8867,89.732
1432.8510,90.0934
1433.8152,90.4177
1434.7794,90.7204
1435.7437,90.9787
1436.7079,91.1141
1437.6721,91.0214
1438.6364,90.6535
1439.6006,90.0574
1440.5648,89.3171
1441.5291,88.4946
1442.4933,87.6207
1443.4575,86.7103
1444.4218,85.7749
1445.3860,84.8275
1446.3502,83.8867
1447.3145,82.9848
1448.2787,82.1655
1449.2429,81.4629
1450.2072,80.8858
1451.1714,80.4275
1452.1356,80.0808
1453.0999,79.8321
1454.0641,79.6462
1455.0283,79.4834
1455.9926,79.3877
1456.9568,79.5225
1457.9210,79.8654
1458.8853,80.1116
1459.8495,80.1336
1460.8137,80.0577
1461.7780,80.055
1462.7422,80.2639
1463.7064,80.7897
1464.6707,81.6533
1465.6349,82.7098
1466.5991,83.7295
1467.5634,84.5996
1468.5276,85.3662
1469.4918,86.1351
1470.4561,86.9983
1471.4203,88.0274
1472.3845,89.2555
1473.3488,90.5787
1474.3130,91.7433
1475.2772,92.5688
1476.2415,93.0665
1477.2057,93.3316
1478.1699,93.4416
1479.1342,93.4386
1480.0984,93.3443
1481.0626,93.1699
1482.0269,92.9199
1482.9911,92.594
1483.9553,92.1915
1484.9196,91.7078
1485.8838,91.1266
1486.8480,90.4298
1487.8123,89.6507
1488.7765,88.9237
1489.7407,88.3836
1490.7050,87.9989
1491.6692,87.6421
1492.6334,87.2433
1493.5977,86.7897
1494.5619,86.27
1495.5261,85.6682
1496.4904,85.0112
1497.4546,84.3898
1498.4188,83.8708
1499.3831,83.4283
1500.3473,83.0247
1501.3115,82.6781
1502.2758,82.4234
1503.2400,82.2422
1504.2042,82.0045
1505.1685,81.4609
1506.1327,80.4498
1507.0969,79.3369
1508.0612,78.6874
1509.0254,78.406
1509.9896,78.1797
1510.9539,77.929
1511.9181,77.6972
1512.8823,77.5527
1513.8466,77.5789
1514.8108,77.8658
1515.7750,78.464
1516.7393,79.3439
1517.7035,80.4379
1518.6677,81.7437
1519.6320,83.3557
1520.5962,85.3331
1521.5604,87.5133
1522.5247,89.5578
1523.4889,91.2495
1524.4531,92.6417
1525.4174,93.9067
1526.3816,95.1229
1527.3458,96.2215
1528.3101,97.0969
1529.2743,97.7203
1530.2385,98.1522
1531.2028,98.4905
1532.1670,98.8198
1533.1312,99.1665
1534.0955,99.4819
1535.0597,99.7096
1536.0239,99.8542
1536.9882,99.9347
1537.9524,99.8876
1538.9166,99.5636
1539.8809,98.9684
1540.8451,98.5373
1541.8093,98.6059
1542.7736,98.9054
1543.7378,99.1444
1544.7020,99.3218
1545.6663,99.3952
1546.6305,99.3785
1547.5947,99.2915
1548.5590,99.1661
1549.5232,99.0309
1550.4874,98.8953
1551.4517,98.7504
1552.4159,98.5911
1553.3801,98.4385
1554.3444,98.3324
1555.3086,98.2907
1556.2728,98.2784
1557.2371,98.2713
1558.2013,98.3995
1559.1655,98.6756
1560.1298,98.668
1561.0940,98.1998
1562.0582,97.5163
1563.0225,96.8677
1563.9867,96.3638
1564.9509,96.0073
1565.9152,95.7417
1566.8794,95.4887
1567.8436,95.1842
1568.8079,94.8116
1569.7721,94.3982
1570.7363,93.9809
1571.7006,93.5869
1572.6648,93.2184
1573.6290,92.8287
1574.5933,92.3314
1575.5575,91.685
1576.5217,90.9743
1577.4860,90.315
1578.4502,89.7189
1579.4144,89.1455
1580.3787,88.572
1581.3429,87.9878
1582.3071,87.3872
1583.2714,86.7763
1584.2356,86.1719
1585.1998,85.5875
1586.1641,85.0258
1587.1283,84.486
1588.0925,83.9728
1589.0568,83.4964
1590.0210,83.065
1590.9852,82.6798
1591.9495,82.3393
1592.9137,82.0457
1593.8779,81.8065
1594.8422,81.6255
1595.8064,81.4936
1596.7706,81.3899
1597.7349,81.2928
1598.6991,81.1918
1599.6633,81.0919
1600.6276,81.009
1601.5918,80.962
1602.5560,80.9614
1603.5203,81.0028
1604.4845,81.0722
1605.4487,81.1591
1606.4130,81.269
1607.3772,81.4229
1608.3414,81.6418
1609.3057,81.9203
1610.2699,82.2221
1611.2341,82.5116
1612.1984,82.787
1613.1626,83.0819
1614.1268,83.4521
1615.0911,83.9652
1616.0553,84.6482
1617.0195,85.3856
1617.9838,85.9711
1618.9480,86.3293
1619.9122,86.5594
1620.8765,86.8012
1621.8407,87.1389
1622.8049,87.5752
1623.7692,88.0428
1624.7334,88.4555
1625.6976,88.7776
1626.6619,89.0348
1627.6261,89.2629
1628.5903,89.4678
1629.5546,89.6374
1630.5188,89.7777
1631.4830,89.9148
1632.4473,90.0576
1633.4115,90.1668
1634.3757,90.1928
1635.3400,90.1764
1636.3042,90.2174
1637.2684,90.2823
1638.2327,90.2703
1639.1969,90.1806
1640.1611,90.0768
1641.1254,90.0101
1642.0896,89.9937
1643.0538,89.9942
1644.0181,89.9318
1644.9823,89.7246
1645.9465,89.4001
1646.9108,89.1253
1647.8750,89.0274
1648.8392,89.1106
1649.8035,89.3419
1650.7677,89.6548
1651.7319,89.9223
1652.6962,90.0636
1653.6604,90.1164
1654.6246,90.0018
1655.5889,89.6493
1656.5531,89.2113
1657.5173,88.8639
1658.4816,88.6726
1659.4458,88.6072
1660.4100,88.5987
1661.3743,88.5992
1662.3385,88.5993
1663.3027,88.5944
1664.2670,88.5716
1665.2312,88.5304
1666.1954,88.4759
1667.1597,88.3985
1668.1239,88.2892
1669.0881,88.1801
1670.0524,88.1328
1671.0166,88.1666
1671.9808,88.2542
1672.9451,88.3738
1673.9093,88.5078
1674.8735,88.612
1675.8378,88.6186
1676.8020,88.4867
1677.7662,88.2525
1678.7305,88.0165
1679.6947,87.8765
1680.6589,87.8722
1681.6232,87.9749
1682.5874,88.133
1683.5516,88.3239
1684.5159,88.486
1685.4801,88.4864
1686.4443,88.302
1687.4086,88.0516
1688.3728,87.8585
1689.3370,87.7785
1690.3013,87.8064
1691.2655,87.902
1692.2297,88.0092
1693.1940,88.0637
1694.1582,88.0069
1695.1224,87.8185
1696.0867,87.5615
1697.0509,87.3829
1698.0151,87.4156
1698.9794,87.6319
1699.9436,87.8279
1700.9078,87.8054
1701.8721,87.5382
1702.8363,87.1515
1703.8005,86.8031
1704.7648,86.5992
1705.7290,86.5637
1706.6932,86.6411
1707.6575,86.7383
1708.6217,86.7894
1709.5859,86.7883
1710.5502,86.7651
1711.5144,86.7475
1712.4786,86.7409
1713.4429,86.7354
1714.4071,86.7416
1715.3713,86.8515
1716.3356,87.2354
1717.2998,87.9158
1718.2640,88.603
1719.2283,89.0238
1720.1925,89.1924
1721.1567,89.2739
1722.1210,89.4062
1723.0852,89.6404
1724.0494,89.9512
1725.0137,90.2729
1725.9779,90.5431
1726.9421,90.7364
1727.9064,90.8712
1728.8706,90.992
1729.8348,91.1473
1730.7991,91.3771
1731.7633,91.7183
1732.7275,92.1979
1733.6918,92.7586
1734.6560,93.2192
1735.6202,93.4484
1736.5845,93.5037
1737.5487,93.5337
1738.5129,93.6422
1739.4772,93.8446
1740.4414,94.0882
1741.4056,94.3009
1742.3699,94.442
1743.3341,94.5223
1744.2983,94.582
1745.2626,94.6566
1746.2268,94.7662
1747.1910,94.9338
1748.1553,95.207
1749.1195,95.6325
1750.0837,96.1718
1751.0480,96.6814
1752.0122,97.034
1752.9764,97.2169
1753.9407,97.2986
1754.9049,97.3543
1755.8691,97.4262
1756.8334,97.5227
1757.7976,97.6351
1758.7618,97.7567
1759.7261,97.8915
1760.6903,98.0476
1761.6545,98.2207
1762.6188,98.3872
1763.5830,98.5205
1764.5472,98.6142
1765.5115,98.6829
1766.4757,98.7428
1767.4399,98.7957
1768.4042,98.8305
1769.3684,98.8398
1770.3326,98.8452
1771.2969,98.9003
1772.2611,99.0403
1773.2253,99.2188
1774.1896,99.3479
1775.1538,99.3949
1776.1180,99.3958
1777.0823,99.4014
1778.0465,99.4378
1779.0107,99.5044
1779.9750,99.5911
1780.9392,99.6914
1781.9034,99.8033
1782.8677,99.9219
1783.8319,100.032
1784.7961,100.111
1785.7604,100.144
1786.7246,100.137
1787.6888,100.117
1788.6531,100.104
1789.6173,100.097
1790.5815,100.084
1791.5458,100.069
1792.5100,100.069
1793.4742,100.071
1794.4385,100.051
1795.4027,100.016
1796.3669,99.9987
1797.3312,100.019
1798.2954,100.072
1799.2596,100.138
1800.2239,100.207
1801.1881,100.276
1802.1523,100.341
1803.1166,100.391
1804.0808,100.423
1805.0450,100.434
1806.0093,100.423
1806.9735,100.393
1807.9377,100.35
1808.9020,100.312
1809.8662,100.304
1810.8304,100.339
1811.7947,100.41
1812.7589,100.491
1813.7231,100.561
1814.6874,100.612
1815.6516,100.643
1816.6158,100.657
1817.5801,100.654
1818.5443,100.637
1819.5085,100.612
1820.4728,100.585
1821.4370,100.561
1822.4012,100.54
1823.3655,100.518
1824.3297,100.488
1825.2939,100.443
1826.2582,100.381
1827.2224,100.312
1828.1866,100.26
1829.1509,100.253
1830.1151,100.295
1831.0793,100.353
1832.0436,100.381
1833.0078,100.364
1833.9720,100.32
1834.9363,100.271
1835.9005,100.227
1836.8647,100.19
1837.8290,100.159
1838.7932,100.137
1839.7574,100.132
1840.7217,100.144
1841.6859,100.153
1842.6501,100.133
1843.6144,100.078
1844.5786,100.008
1845.5428,99.9428
1846.5071,99.9004
1847.4713,99.9
1848.4355,99.9308
1849.3998,99.9918
1850.3640,100.065
1851.3282,100.126
1852.2925,100.161
1853.2567,100.17
1854.2209,100.162
1855.1852,100.146
1856.1494,100.128
1857.1136,100.11
1858.0779,100.095
1859.0421,100.088
1860.0063,100.092
1860.9706,100.097
1861.9348,100.089
1862.8990,100.056
1863.8633,99.9914
1864.8275,99.8991
1865.7917,99.79
1866.7560,99.6934
1867.7202,99.6607
1868.6844,99.7301
1869.6487,99.8745
1870.6129,100.02
1871.5771,100.118
1872.5414,100.167
1873.5056,100.191
1874.4698,100.205
1875.4341,100.213
1876.3983,100.215
1877.3625,100.214
1878.3268,100.211
1879.2910,100.208
1880.2552,100.205
1881.2195,100.197
1882.1837,100.182
1883.1479,100.159
1884.1122,100.131
1885.0764,100.104
1886.0406,100.082
1887.0049,100.067
1887.9691,100.06
1888.9333,100.061
1889.8976,100.065
1890.8618,100.063
1891.8260,100.05
1892.7903,100.029
1893.7545,100.012
1894.7188,100.011
1895.6830,100.031
1896.6472,100.066
1897.6115,100.102
1898.5757,100.126
1899.5399,100.131
1900.5042,100.122
1901.4684,100.105
1902.4326,100.087
1903.3969,100.067
1904.3611,100.038
1905.3253,99.9937
1906.2896,99.9366
1907.2538,99.878
1908.2180,99.8368
1909.1823,99.8283
1910.1465,99.8524
1911.1107,99.8927
1912.0750,99.9295
1913.0392,99.9531
1914.0034,99.9652
1914.9677,99.9699
1915.9319,99.968
1916.8961,99.9555
1917.8604,99.9245
1918.8246,99.8693
1919.7888,99.7943
1920.7531,99.7195
1921.7173,99.6724
1922.6815,99.6732
1923.6458,99.7219
1924.6100,99.7971
1925.5742,99.8699
1926.5385,99.921
1927.5027,99.9467
1928.4669,99.953
1929.4312,99.9484
1930.3954,99.9401
1931.3596,99.9329
1932.3239,99.9307
1933.2881,99.9363
1934.2523,99.95
1935.2166,99.9674
1936.1808,99.9798
1937.1450,99.9786
1938.1093,99.9585
1939.0735,99.9197
1940.0377,99.8677
1941.0020,99.8149
1941.9662,99.778
1942.9304,99.7699
1943.8947,99.7904
1944.8589,99.8293
1945.8231,99.876
1946.7874,99.9245
1947.7516,99.971
1948.7158,100.011
1949.6801,100.038
1950.6443,100.05
1951.6085,100.05
1952.5728,100.045
1953.5370,100.041
1954.5012,100.044
1955.4655,100.054
1956.4297,100.068
1957.3939,100.083
1958.3582,100.096
1959.3224,100.107
1960.2866,100.114
1961.2509,100.113
1962.2151,100.101
1963.1793,100.075
1964.1436,100.039
1965.1078,100.007
1966.0720,99.9932
1967.0363,100.01
1968.0005,100.057
1968.9647,100.118
1969.9290,100.174
1970.8932,100.214
1971.8574,100.234
1972.8217,100.24
1973.7859,100.239
1974.7501,100.239
1975.7144,100.242
1976.6786,100.248
1977.6428,100.254
1978.6071,100.26
1979.5713,100.265
1980.5355,100.269
1981.4998,100.272
1982.4640,100.272
1983.4282,100.267
1984.3925,100.256
1985.3567,100.238
1986.3209,100.214
1987.2852,100.185
1988.2494,100.154
1989.2136,100.126
1990.1779,100.108
1991.1421,100.107
1992.1063,100.128
1993.0706,100.164
1994.0348,100.206
1994.9990,100.241
1995.9633,100.263
1996.9275,100.274
1997.8917,100.276
1998.8560,100.277
1999.8202,100.281
2000.7844,100.289
2001.7487,100.297
2002.7129,100.303
2003.6771,100.303
2004.6414,100.296
2005.6056,100.284
2006.5698,100.272
2007.5341,100.262
2008.4983,100.258
2009.4625,100.261
2010.4268,100.267
2011.3910,100.271
2012.3552,100.264
2013.3195,100.243
2014.2837,100.21
2015.2479,100.172
2016.2122,100.144
2017.1764,100.134
2018.1406,100.147
2019.1049,100.173
2020.0691,100.201
2021.0333,100.223
2021.9976,100.235
2022.9618,100.239
2023.9260,100.24
2024.8903,100.241
2025.8545,100.243
2026.8187,100.246
2027.7830,100.248
2028.7472,100.248
2029.7114,100.247
2030.6757,100.244
2031.6399,100.239
2032.6041,100.234
2033.5684,100.229
2034.5326,100.225
2035.4968,100.22
2036.4611,100.213
2037.4253,100.2
2038.3895,100.182
2039.3538,100.162
2040.3180,100.147
2041.2822,100.141
2042.2465,100.146
2043.2107,100.16
2044.1749,100.175
2045.1392,100.186
2046.1034,100.188
2047.0676,100.184
2048.0320,100.177
2048.9961,100.169
2049.9604,100.163
2050.9246,100.16
2051.8889,100.16
2052.8530,100.161
2053.8174,100.162
2054.7815,100.161
2055.7458,100.157
2056.7100,100.152
2057.6743,100.145
2058.6384,100.138
2059.6028,100.128
2060.5669,100.115
2061.5313,100.098
2062.4954,100.078
2063.4597,100.062
2064.4238,100.057
2065.3882,100.066
2066.3523,100.087
2067.3167,100.113
2068.2808,100.135
2069.2451,100.149
2070.2092,100.153
2071.1736,100.151
2072.1377,100.148
2073.1021,100.146
2074.0662,100.146
2075.0305,100.147
2075.9946,100.147
2076.9590,100.146
2077.9231,100.143
2078.8875,100.14
2079.8516,100.139
2080.8159,100.14
2081.7800,100.142
2082.7444,100.143
2083.7085,100.141
2084.6729,100.136
2085.6370,100.129
2086.6013,100.12
2087.5654,100.113
2088.5298,100.11
2089.4939,100.11
2090.4583,100.115
2091.4224,100.121
2092.3867,100.127
2093.3508,100.131
2094.3152,100.133
2095.2793,100.133
2096.2437,100.133
2097.2078,100.131
2098.1721,100.128
2099.1362,100.124
2100.1006,100.118
2101.0647,100.113
2102.0291,100.11
2102.9932,100.108
2103.9575,100.107
2104.9216,100.105
2105.8860,100.102
2106.8501,100.098
2107.8145,100.092
2108.7786,100.084
2109.7429,100.075
2110.7070,100.066
2111.6714,100.057
2112.6355,100.049
2113.5999,100.046
2114.5640,100.047
2115.5283,100.053
2116.4924,100.061
2117.4568,100.069
2118.4209,100.073
2119.3853,100.073
2120.3494,100.07
2121.3137,100.067
2122.2778,100.065
2123.2422,100.064
2124.2063,100.063
2125.1707,100.061
2126.1348,100.058
2127.0991,100.055
2128.0632,100.055
2129.0276,100.057
2129.9917,100.062
2130.9561,100.066
2131.9202,100.069
2132.8845,100.068
2133.8486,100.064
2134.8130,100.061
2135.7771,100.06
2136.7415,100.064
2137.7056,100.073
2138.6699,100.085
2139.6340,100.097
2140.5984,100.108
2141.5625,100.115
2142.5269,100.121
2143.4910,100.126
2144.4553,100.132
2145.4194,100.139
2146.3838,100.146
2147.3479,100.152
2148.3123,100.155
2149.2764,100.155
2150.2407,100.153
2151.2048,100.149
2152.1692,100.146
2153.1333,100.146
2154.0977,100.15
2155.0618,100.158
2156.0261,100.168
2156.9902,100.178
2157.9546,100.186
2158.9187,100.191
2159.8831,100.195
2160.8472,100.198
2161.8115,100.201
2162.7756,100.204
2163.7400,100.207
2164.7041,100.21
2165.6685,100.213
2166.6326,100.216
2167.5969,100.219
2168.5610,100.222
2169.5254,100.225
2170.4895,100.229
2171.4539,100.233
2172.4180,100.238
2173.3823,100.245
2174.3464,100.252
2175.3108,100.259
2176.2749,100.264
2177.2393,100.268
2178.2034,100.27
2179.1677,100.271
2180.1318,100.27
2181.0962,100.268
2182.0603,100.264
2183.0247,100.259
2183.9888,100.256
2184.9531,100.256
2185.9172,100.26
2186.8816,100.27
2187.8457,100.282
2188.8101,100.295
2189.7742,100.305
2190.7385,100.311
2191.7026,100.314
2192.6670,100.313
2193.6311,100.311
2194.5955,100.31
2195.5596,100.309
2196.5239,100.31
2197.4880,100.31
2198.4524,100.311
2199.4165,100.31
2200.3809,100.31
2201.3450,100.311
2202.3093,100.312
2203.2734,100.314
2204.2378,100.316
2205.2019,100.316
2206.1663,100.315
2207.1304,100.314
2208.0947,100.313
2209.0588,100.313
2210.0232,100.313
2210.9873,100.312
2211.9517,100.309
2212.9158,100.303
2213.8801,100.297
2214.8442,100.291
2215.8086,100.287
2216.7727,100.285
2217.7371,100.283
2218.7012,100.28
2219.6655,100.277
2220.6296,100.272
2221.5940,100.267
2222.5581,100.262
2223.5225,100.259
2224.4866,100.255
2225.4509,100.252
2226.4150,100.246
2227.3794,100.239
2228.3435,100.23
2229.3079,100.219
2230.2720,100.206
2231.2363,100.194
2232.2004,100.181
2233.1648,100.17
2234.1289,100.162
2235.0933,100.155
2236.0574,100.152
2237.0217,100.149
2237.9858,100.145
2238.9502,100.139
2239.9143,100.13
2240.8787,100.118
2241.8428,100.104
2242.8071,100.09
2243.7712,100.078
2244.7356,100.068
2245.6997,100.058
2246.6641,100.047
2247.6282,100.036
2248.5925,100.024
2249.5566,100.01
2250.5210,99.9942
2251.4851,99.9777
2252.4495,99.9602
2253.4136,99.9423
2254.3779,99.9249
2255.3420,99.9094
2256.3064,99.8968
2257.2705,99.8877
2258.2349,99.8816
2259.1990,99.8771
2260.1633,99.8726
2261.1274,99.8666
2262.0918,99.8591
2263.0559,99.8513
2264.0203,99.8452
2264.9844,99.8423
2265.9487,99.8426
2266.9128,99.8439
2267.8772,99.8432
2268.8413,99.8381
2269.8057,99.8283
2270.7698,99.8159
2271.7341,99.8046
2272.6982,99.7974
2273.6626,99.796
2274.6267,99.8
2275.5911,99.8078
2276.5552,99.8179
2277.5195,99.8292
2278.4836,99.8412
2279.4480,99.8531
2280.4121,99.8633
2281.3765,99.8694
2282.3406,99.8684
2283.3049,99.8573
2284.2690,99.8344
2285.2334,99.7996
2286.1975,99.7553
2287.1619,99.7059
2288.1260,99.6555
2289.0903,99.6066
2290.0544,99.5595
2291.0188,99.5131
2291.9829,99.4671
2292.9473,99.4234
2293.9114,99.3856
2294.8757,99.3568
2295.8398,99.3388
2296.8042,99.3312
2297.7683,99.334
2298.7327,99.3486
2299.6968,99.3781
2300.6611,99.4244
2301.6252,99.4847
2302.5896,99.5502
2303.5537,99.6077
2304.5181,99.6449
2305.4822,99.657
2306.4465,99.651
2307.4106,99.6455
2308.3750,99.6639
2309.3391,99.724
2310.3035,99.8287
2311.2676,99.9638
2312.2319,100.104
2313.1960,100.226
2314.1604,100.321
2315.1245,100.396
2316.0889,100.471
2317.0530,100.567
2318.0173,100.692
2318.9814,100.832
2319.9458,100.954
2320.9099,101.007
2321.8743,100.951
2322.8384,100.772
2323.8027,100.506
2324.7668,100.226
2325.7312,100.016
2326.6953,99.9372
2327.6597,99.9988
2328.6238,100.154
2329.5881,100.315
2330.5522,100.393
2331.5166,100.34
2332.4807,100.173
2333.4451,99.9598
2334.4092,99.7734
2335.3735,99.6573
2336.3376,99.6073
2337.3020,99.5803
2338.2661,99.5213
2339.2305,99.3977
2340.1946,99.2269
2341.1589,99.0892
2342.1230,99.1067
2343.0874,99.3572
2344.0515,99.7218
2345.0159,99.928
2345.9800,99.8138
2346.9443,99.4729
2347.9084,99.1358
2348.8728,98.9928
2349.8369,99.1053
2350.8013,99.3964
2351.7654,99.6954
2352.7297,99.8342
2353.6938,99.7596
2354.6582,99.5498
2355.6223,99.2976
2356.5867,99.02
2357.5508,98.7084
2358.5151,98.4077
2359.4792,98.2035
2360.4436,98.1456
2361.4077,98.2181
2362.3721,98.3845
2363.3362,98.631
2364.3005,98.9577
2365.2646,99.349
2366.2290,99.7662
2367.1931,100.167
2368.1575,100.524
2369.1216,100.824
2370.0859,101.067
2371.0500,101.252
2372.0144,101.38
2372.9785,101.45
2373.9429,101.458
2374.9070,101.397
2375.8713,101.265
2376.8354,101.066
2377.7998,100.82
2378.7639,100.554
2379.7283,100.298
2380.6924,100.078
2381.6567,99.9129
2382.6208,99.8074
2383.5852,99.7571
2384.5493,99.7497
2385.5137,99.7697
2386.4778,99.8022
2387.4421,99.8357
2388.4063,99.8635
2389.3706,99.8829
2390.3347,99.8946
2391.2991,99.9006
2392.2632,99.9029
2393.2275,99.903
2394.1917,99.9018
2395.1560,99.9
2396.1201,99.8986
2397.0845,99.8984
2398.0486,99.8995
2399.0129,99.9011
2399.9771,99.9021
2400.9414,99.9009
2401.9055,99.8971
2402.8699,99.8919
2403.8340,99.8872
2404.7983,99.8847
2405.7625,99.8845
2406.7268,99.8853
2407.6909,99.8852
2408.6553,99.8829
2409.6194,99.8785
2410.5837,99.8737
2411.5479,99.8705
2412.5122,99.8701
2413.4763,99.8721
2414.4407,99.8751
2415.4048,99.8779
2416.3691,99.8804
2417.3333,99.8838
2418.2976,99.889
2419.2617,99.8963
2420.2261,99.9038
2421.1902,99.9094
2422.1545,99.9114
2423.1187,99.9108
2424.0830,99.91
2425.0471,99.9122
2426.0115,99.9188
2426.9756,99.9289
2427.9399,99.9398
2428.9041,99.9491
2429.8684,99.9557
2430.8325,99.9602
2431.7969,99.964
2432.7610,99.9675
2433.7253,99.9705
2434.6895,99.9718
2435.6538,99.9714
2436.6179,99.9701
2437.5823,99.9693
2438.5464,99.9706
2439.5107,99.9742
2440.4749,99.9795
2441.4392,99.9855
2442.4033,99.9915
2443.3677,99.9972
2444.3318,100.003
2445.2961,100.008
2446.2603,100.013
2447.2246,100.015
2448.1887,100.015
2449.1531,100.011
2450.1172,100.004
2451.0815,99.9965
2452.0457,99.9904
2453.0100,99.9876
2453.9741,99.9884
2454.9385,99.9913
2455.9026,99.9942
2456.8669,99.9949
2457.8311,99.9929
2458.7954,99.9892
2459.7595,99.9854
2460.7239,99.983
2461.6880,99.9824
2462.6523,99.9833
2463.6165,99.9849
2464.5808,99.9865
2465.5449,99.9877
2466.5093,99.9879
2467.4734,99.9865
2468.4377,99.9831
2469.4019,99.9779
2470.3662,99.9725
2471.3303,99.9688
2472.2947,99.9686
2473.2588,99.9721
2474.2231,99.9782
2475.1873,99.9842
2476.1516,99.9877
2477.1157,99.9873
2478.0801,99.9835
2479.0442,99.978
2480.0085,99.9732
2480.9727,99.9705
2481.9370,99.9699
2482.9011,99.9703
2483.8655,99.9702
2484.8296,99.9687
2485.7939,99.9665
2486.7581,99.9656
2487.7224,99.9676
2488.6865,99.9729
2489.6509,99.9799
2490.6150,99.9859
2491.5793,99.9881
2492.5435,99.986
2493.5078,99.9816
2494.4719,99.9786
2495.4363,99.9804
2496.4004,99.9882
2497.3647,100
2498.3289,100.012
2499.2932,100.021
2500.2573,100.025
2501.2217,100.025
2502.1858,100.024
2503.1501,100.025
2504.1143,100.03
2505.0786,100.036
2506.0427,100.042
2507.0071,100.047
2507.9712,100.049
2508.9355,100.049
2509.8997,100.05
2510.8640,100.051
2511.8281,100.052
2512.7925,100.053
2513.7566,100.056
2514.7209,100.06
2515.6851,100.067
2516.6494,100.075
2517.6135,100.083
2518.5779,100.088
2519.5420,100.089
2520.5063,100.087
2521.4705,100.084
2522.4348,100.084
2523.3989,100.087
2524.3633,100.094
2525.3274,100.103
2526.2917,100.109
2527.2559,100.113
2528.2202,100.114
2529.1843,100.114
2530.1487,100.113
2531.1128,100.112
2532.0771,100.112
2533.0413,100.113
2534.0056,100.114
2534.9697,100.114
2535.9341,100.114
2536.8982,100.115
2537.8625,100.117
2538.8267,100.121
2539.7910,100.127
2540.7551,100.134
2541.7195,100.141
2542.6836,100.146
2543.6479,100.148
2544.6121,100.149
2545.5764,100.148
2546.5405,100.149
2547.5049,100.152
2548.4690,100.156
2549.4333,100.16
2550.3975,100.164
2551.3618,100.168
2552.3259,100.172
2553.2903,100.177
2554.2544,100.183
2555.2188,100.19
2556.1829,100.196
2557.1472,100.202
2558.1113,100.208
2559.0757,100.213
2560.0398,100.218
2561.0042,100.222
2561.9683,100.223
2562.9326,100.222
2563.8967,100.22
2564.8611,100.219
2565.8252,100.221
2566.7896,100.225
2567.7537,100.232
2568.7180,100.238
2569.6821,100.243
2570.6465,100.245
2571.6106,100.245
2572.5750,100.244
2573.5391,100.242
2574.5034,100.24
2575.4675,100.238
2576.4319,100.236
2577.3960,100.235
2578.3604,100.235
2579.3245,100.238
2580.2888,100.242
2581.2529,100.249
2582.2173,100.256
2583.1814,100.262
2584.1458,100.266
2585.1099,100.265
2586.0742,100.262
2587.0383,100.256
2588.0027,100.249
2588.9668,100.242
2589.9312,100.237
2590.8953,100.232
2591.8596,100.229
2592.8237,100.227
2593.7881,100.227
2594.7522,100.228
2595.7166,100.231
2596.6807,100.235
2597.6450,100.241
2598.6091,100.249
2599.5735,100.256
2600.5376,100.264
2601.5020,100.271
2602.4661,100.275
2603.4304,100.276
2604.3945,100.274
2605.3589,100.273
2606.3230,100.273
2607.2874,100.278
2608.2515,100.287
2609.2158,100.298
2610.1799,100.309
2611.1443,100.318
2612.1084,100.324
2613.0728,100.327
2614.0369,100.325
2615.0012,100.321
2615.9653,100.318
2616.9297,100.316
2617.8938,100.319
2618.8582,100.325
2619.8223,100.333
2620.7866,100.341
2621.7507,100.347
2622.7151,100.351
2623.6792,100.354
2624.6436,100.357
2625.6077,100.361
2626.5720,100.365
2627.5361,100.37
2628.5005,100.372
2629.4646,100.373
2630.4290,100.371
2631.3931,100.368
2632.3574,100.363
2633.3215,100.36
2634.2859,100.358
2635.2500,100.359
2636.2144,100.362
2637.1785,100.367
2638.1428,100.372
2639.1069,100.376
2640.0713,100.379
2641.0354,100.38
2641.9998,100.38
2642.9639,100.379
2643.9282,100.378
2644.8923,100.378
2645.8567,100.378
2646.8208,100.38
2647.7852,100.382
2648.7493,100.383
2649.7136,100.383
2650.6777,100.382
2651.6421,100.383
2652.6062,100.386
2653.5706,100.392
2654.5347,100.402
2655.4990,100.412
2656.4631,100.421
2657.4275,100.426
2658.3916,100.427
2659.3560,100.424
2660.3201,100.42
2661.2844,100.417
2662.2485,100.416
2663.2129,100.42
2664.1770,100.426
2665.1414,100.434
2666.1055,100.44
2667.0698,100.444
2668.0339,100.445
2668.9983,100.445
2669.9624,100.447
2670.9268,100.451
2671.8909,100.458
2672.8552,100.466
2673.8193,100.475
2674.7837,100.482
2675.7478,100.485
2676.7122,100.484
2677.6763,100.479
2678.6406,100.47
2679.6047,100.457
2680.5691,100.442
2681.5332,100.43
2682.4976,100.423
2683.4617,100.421
2684.4260,100.423
2685.3901,100.427
2686.3545,100.426
2687.3186,100.42
2688.2830,100.409
2689.2471,100.396
2690.2114,100.384
2691.1755,100.376
2692.1399,100.373
2693.1040,100.372
2694.0684,100.372
2695.0325,100.369
2695.9968,100.365
2696.9609,100.358
2697.9253,100.35
2698.8894,100.342
2699.8538,100.335
2700.8179,100.329
2701.7822,100.325
2702.7463,100.321
2703.7107,100.315
2704.6748,100.306
2705.6392,100.292
2706.6033,100.274
2707.5676,100.254
2708.5317,100.235
2709.4961,100.221
2710.4602,100.214
2711.4246,100.212
2712.3887,100.212
2713.3530,100.209
2714.3171,100.2
2715.2815,100.184
2716.2456,100.163
2717.2100,100.14
2718.1741,100.118
2719.1384,100.102
2720.1025,100.092
2721.0669,100.087
2722.0310,100.086
2722.9954,100.086
2723.9595,100.083
2724.9238,100.076
2725.8879,100.066
2726.8523,100.054
2727.8164,100.043
2728.7808,100.034
2729.7449,100.028
2730.7092,100.022
2731.6733,100.018
2732.6377,100.015
2733.6018,100.013
2734.5662,100.011
2735.5303,100.006
2736.4946,99.9977
2737.4587,99.9843
2738.4231,99.968
2739.3872,99.9525
2740.3516,99.9416
2741.3157,99.9376
2742.2800,99.9406
2743.2441,99.9487
2744.2085,99.9593
2745.1726,99.9695
2746.1370,99.9769
2747.1011,99.9798
2748.0654,99.9773
2749.0295,99.9702
2749.9939,99.9603
2750.9580,99.9508
2751.9224,99.9444
2752.8865,99.9428
2753.8508,99.9449
2754.8149,99.9479
2755.7793,99.9484
2756.7434,99.944
2757.7078,99.9342
2758.6719,99.9206
2759.6362,99.9064
2760.6003,99.8945
2761.5647,99.8865
2762.5288,99.8824
2763.4932,99.8808
2764.4573,99.8797
2765.4216,99.8783
2766.3857,99.877
2767.3501,99.8776
2768.3142,99.8816
2769.2786,99.8889
2770.2427,99.8967
2771.2070,99.9004
2772.1711,99.8954
2773.1355,99.8794
2774.0996,99.854
2775.0640,99.8238
2776.0281,99.7947
2776.9924,99.771
2777.9565,99.7533
2778.9209,99.7397
2779.8850,99.7268
2780.8494,99.7091
2781.8135,99.6856
2782.7778,99.6581
2783.7419,99.6297
2784.7063,99.6035
2785.6704,99.5804
2786.6348,99.5588
2787.5989,99.5358
2788.5632,99.5082
2789.5273,99.4746
2790.4917,99.436
2791.4558,99.3952
2792.4202,99.3554
2793.3843,99.3183
2794.3486,99.2833
2795.3127,99.2479
2796.2771,99.209
2797.2412,99.1649
2798.2056,99.1165
2799.1697,99.066
2800.1340,99.0163
2801.0981,98.9687
2802.0625,98.9228
2803.0266,98.8772
2803.9910,98.8308
2804.9551,98.7832
2805.9194,98.7349
2806.8835,98.6859
2807.8479,98.6348
2808.8120,98.5791
2809.7764,98.516
2810.7405,98.4439
2811.7048,98.3632
2812.6689,98.2757
2813.6333,98.1838
2814.5974,98.0897
2815.5618,97.9939
2816.5259,97.8951
2817.4902,97.7909
2818.4543,97.6778
2819.4187,97.5525
2820.3828,97.4125
2821.3472,97.2567
2822.3113,97.0851
2823.2756,96.8987
2824.2397,96.6989
2825.2041,96.4873
2826.1682,96.2654
2827.1326,96.0344
2828.0967,95.7951
2829.0610,95.5478
2830.0251,95.2925
2830.9895,95.0301
2831.9536,94.7627
2832.9180,94.494
2833.8821,94.2289
2834.8464,93.9719
2835.8105,93.7265
2836.7749,93.4949
2837.7390,93.2787
2838.7034,93.08
2839.6675,92.9017
2840.6318,92.7458
2841.5959,92.6111
2842.5603,92.4915
2843.5244,92.3766
2844.4888,92.2561
2845.4529,92.1251
2846.4172,91.988
2847.3813,91.8583
2848.3457,91.7523
2849.3098,91.6812
2850.2742,91.6457
2851.2383,91.6353
2852.2026,91.6346
2853.1667,91.6303
2854.1311,91.615
2855.0952,91.5871
2856.0596,91.5462
2857.0237,91.4892
2857.9880,91.4105
2858.9521,91.3043
2859.9165,91.1684
2860.8806,91.0064
2861.8450,90.8255
2862.8091,90.634
2863.7734,90.439
2864.7375,90.2452
2865.7019,90.0562
2866.6660,89.8756
2867.6304,89.7066
2868.5945,89.552
2869.5588,89.4128
2870.5229,89.2878
2871.4873,89.1738
2872.4514,89.0662
2873.4158,88.9594
2874.3799,88.848
2875.3442,88.7269
2876.3083,88.592
2877.2727,88.44
2878.2368,88.2698
2879.2012,88.0837
2880.1653,87.8883
2881.1296,87.695
2882.0938,87.5169
2883.0581,87.3649
2884.0222,87.2441
2884.9866,87.1519
2885.9507,87.0784
2886.9150,87.0093
2887.8792,86.9304
2888.8435,86.8321
2889.8076,86.7138
2890.7720,86.5849
2891.7361,86.4609
2892.7004,86.3537
2893.6646,86.2602
2894.6289,86.1585
2895.5930,86.016
2896.5574,85.8087
2897.5215,85.5407
2898.4858,85.2515
2899.4500,85.0023
2900.4143,84.8483
2901.3784,84.813
2902.3428,84.8784
2903.3069,84.9967
2904.2712,85.1143
2905.2354,85.1943
2906.1997,85.2243
2907.1638,85.2111
2908.1282,85.1693
2909.0923,85.1117
2910.0566,85.0467
2911.0208,84.9788
2911.9851,84.9102
2912.9492,84.8406
2913.9136,84.7675
2914.8777,84.6878
2915.8420,84.6007
2916.8062,84.5094
2917.7705,84.4204
2918.7346,84.3403
2919.6990,84.2735
2920.6631,84.2207
2921.6274,84.1805
2922.5916,84.1504
2923.5559,84.1279
2924.5200,84.1098
2925.4844,84.0924
2926.4485,84.0718
2927.4128,84.045
2928.3770,84.0111
2929.3413,83.9715
2930.3054,83.9298
2931.2698,83.8914
2932.2339,83.8634
2933.1982,83.8529
2934.1624,83.8659
2935.1267,83.9051
2936.0908,83.9698
2937.0552,84.0563
2938.0193,84.1599
2938.9836,84.2775
2939.9478,84.4083
2940.9121,84.5544
2941.8762,84.7183
2942.8406,84.9004
2943.8047,85.0965
2944.7690,85.2966
2945.7332,85.4859
2946.6975,85.6487
2947.6616,85.7723
2948.6260,85.8511
2949.5901,85.8866
2950.5544,85.8857
2951.5186,85.8561
2952.4829,85.804
2953.4470,85.7321
2954.4114,85.6419
2955.3755,85.5349
2956.3398,85.4148
2957.3040,85.2864
2958.2683,85.1532
2959.2324,85.0146
2960.1968,84.8651
2961.1609,84.6958
2962.1252,84.4993
2963.0894,84.2737
2964.0537,84.0256
2965.0178,83.7688
2965.9822,83.5204
2966.9463,83.2965
2967.9106,83.1096
2968.8748,82.9684
2969.8391,82.8801
2970.8032,82.8511
2971.7676,82.8867
2972.7317,82.9881
2973.6960,83.1502
2974.6602,83.362
2975.6245,83.6094
2976.5886,83.8791
2977.5530,84.1622
2978.5171,84.4548
2979.4814,84.7545
2980.4456,85.0561
2981.4099,85.3471
2982.3740,85.6083
2983.3384,85.8207
2984.3025,85.9783
2985.2668,86.0994
2986.2310,86.2286
2987.1953,86.4243
2988.1594,86.7342
2989.1238,87.1701
2990.0879,87.6991
2991.0522,88.2547
2992.0164,88.7658
2992.9807,89.1859
2993.9448,89.5087
2994.9092,89.762
2995.8733,89.988
2996.8376,90.2204
2997.8018,90.4736
2998.7661,90.745
2999.7302,91.0249
3000.6946,91.307
3001.6587,91.5916
3002.6230,91.8841
3003.5872,92.1898
3004.5515,92.5104
3005.5156,92.8423
3006.4800,93.1779
3007.4441,93.5089
3008.4084,93.8288
3009.3726,94.1366
3010.3369,94.4365
3011.3010,94.7358
3012.2654,95.0402
3013.2295,95.3501
3014.1938,95.6595
3015.1580,95.9597
3016.1223,96.2435
3017.0864,96.5091
3018.0508,96.7596
3019.0149,96.9997
3019.9792,97.2329
3020.9434,97.4594
3021.9077,97.6775
3022.8718,97.8857
3023.8362,98.0835
3024.8003,98.2711
3025.7646,98.4483
3026.7288,98.6137
3027.6931,98.7661
3028.6572,98.9062
3029.6216,99.0375
3030.5857,99.1655
3031.5500,99.2951
3032.5142,99.4284
3033.4785,99.5637
3034.4426,99.697
3035.4070,99.8241
3036.3711,99.9421
3037.3354,100.05
3038.2996,100.146
3039.2639,100.207
3040.2280,100.251
3041.1924,100.281
3042.1565,100.297
3043.1208,100.3
3044.0850,100.295
3045.0493,100.286
3046.0134,100.278
3046.9778,100.273
3047.9419,100.273
3048.9063,100.272
3049.8704,100.266
3050.8347,100.248
3051.7988,100.216
3052.7632,100.172
3053.7273,100.122
3054.6917,100.074
3055.6558,100.035
3056.6201,100.008
3057.5842,99.9895
3058.5486,99.9727
3059.5127,99.9482
3060.4771,99.9092
3061.4412,99.8547
3062.4055,99.7904
3063.3696,99.7274
3064.3340,99.677
3065.2981,99.6452
3066.2625,99.6301
3067.2266,99.6235
3068.1909,99.6158
3069.1550,99.6008
3070.1194,99.5781
3071.0835,99.5511
3072.0479,99.5236
3073.0120,99.4967
3073.9763,99.4682
3074.9404,99.4348
3075.9048,99.3951
3076.8689,99.3508
3077.8333,99.3066
3078.7974,99.268
3079.7617,99.238
3080.7258,99.2167
3081.6902,99.2011
3082.6543,99.1871
3083.6187,99.1714
3084.5828,99.1529
3085.5471,99.1325
3086.5112,99.1117
3087.4756,99.0907
3088.4397,99.0682
3089.4041,99.0406
3090.3682,99.0045
3091.3325,98.9583
3092.2966,98.9036
3093.2610,98.8448
3094.2251,98.7874
3095.1895,98.7353
3096.1536,98.6894
3097.1179,98.648
3098.0820,98.6084
3099.0464,98.5691
3100.0105,98.5302
3100.9749,98.4933
3101.9390,98.4597
3102.9033,98.4293
3103.8674,98.4004
3104.8318,98.3706
3105.7959,98.3375
3106.7603,98.3002
3107.7244,98.259
3108.6887,98.2149
3109.6528,98.1693
3110.6172,98.1228
3111.5813,98.0753
3112.5457,98.0262
3113.5098,97.975
3114.4741,97.9214
3115.4382,97.8657
3116.4026,97.8093
3117.3667,97.7541
3118.3311,97.7023
3119.2952,97.6559
3120.2595,97.616
3121.2236,97.5824
3122.1880,97.5536
3123.1521,97.5276
3124.1165,97.5024
3125.0806,97.476
3126.0449,97.4466
3127.0090,97.4116
3127.9734,97.3681
3128.9375,97.3143
3129.9019,97.2519
3130.8660,97.1865
3131.8303,97.1273
3132.7944,97.0833
3133.7588,97.0588
3134.7229,97.0515
3135.6873,97.0522
3136.6514,97.0494
3137.6157,97.0333
3138.5798,96.9996
3139.5442,96.9503
3140.5083,96.892
3141.4727,96.8319
3142.4368,96.7754
3143.4011,96.7239
3144.3652,96.6766
3145.3296,96.632
3146.2937,96.5907
3147.2581,96.555
3148.2222,96.527
3149.1865,96.5061
3150.1506,96.4872
3151.1150,96.4618
3152.0791,96.4225
3153.0435,96.3664
3154.0076,96.297
3154.9719,96.2221
3155.9360,96.1503
3156.9004,96.0871
3157.8645,96.0336
3158.8289,95.9875
3159.7930,95.945
3160.7573,95.9028
3161.7214,95.8584
3162.6858,95.8104
3163.6499,95.7583
3164.6143,95.7032
3165.5784,95.6478
3166.5427,95.5958
3167.5068,95.5499
3168.4712,95.5101
3169.4353,95.5503
3170.3997,95.5096
3171.3638,95.4597
3172.3281,95.3985
3173.2922,95.3285
3174.2566,95.255
3175.2207,95.1847
3176.1851,95.1225
3177.1492,95.0698
3178.1135,95.0242
3179.0776,94.9809
3180.0420,94.9354
3181.0061,94.8859
3181.9705,94.8349
3182.9346,94.7877
3183.8989,94.7495
3184.8630,94.7217
3185.8274,94.7006
3186.7915,94.6784
3187.7559,94.6477
3188.7200,94.605
3189.6843,94.552
3190.6484,94.4931
3191.6128,94.4326
3192.5769,94.3719
3193.5413,94.3104
3194.5054,94.248
3195.4697,94.1868
3196.4338,94.1306
3197.3982,94.0823
3198.3623,94.042
3199.3267,94.0067
3200.2908,93.9731
3201.2551,93.9391
3202.2192,93.9044
3203.1836,93.8682
3204.1477,93.8282
3205.1121,93.7809
3206.0762,93.7245
3207.0405,93.6616
3208.0046,93.5986
3208.9690,93.5424
3209.9331,93.496
3210.8975,93.4573
3211.8616,93.4207
3212.8259,93.3811
3213.7900,93.3376
3214.7544,93.2921
3215.7185,93.2478
3216.6829,93.2056
3217.6470,93.1647
3218.6113,93.1237
3219.5754,93.083
3220.5398,93.0443
3221.5039,93.0089
3222.4683,92.9756
3223.4324,92.9416
3224.3967,92.9041
3225.3608,92.8638
3226.3252,92.8247
3227.2893,92.7925
3228.2537,92.7709
3229.2178,92.7584
3230.1821,92.7486
3231.1462,92.733
3232.1106,92.7056
3233.0747,92.6653
3234.0391,92.6162
3235.0032,92.5652
3235.9675,92.5189
3236.9316,92.4805
3237.8960,92.4492
3238.8601,92.4211
3239.8245,92.3915
3240.7886,92.3576
3241.7529,92.3194
3242.7170,92.2797
3243.6814,92.2417
3244.6455,92.2079
3245.6099,92.178
3246.5740,92.1496
3247.5383,92.1204
3248.5024,92.089
3249.4668,92.0558
3250.4309,92.0215
3251.3953,91.9871
3252.3594,91.9524
3253.3237,91.9169
3254.2878,91.8801
3255.2522,91.8419
3256.2163,91.8031
3257.1807,91.7646
3258.1448,91.7269
3259.1091,91.6904
3260.0732,91.6547
3261.0376,91.62
3262.0017,91.587
3262.9661,91.557
3263.9302,91.5312
3264.8945,91.5093
3265.8586,91.4888
3266.8230,91.4653
3267.7871,91.4335
3268.7515,91.3904
3269.7156,91.3367
3270.6799,91.2772
3271.6440,91.2189
3272.6084,91.1687
3273.5725,91.1307
3274.5369,91.105
3275.5010,91.0887
3276.4653,91.0765
3277.4294,91.0635
3278.3938,91.0456
3279.3579,91.0208
3280.3223,90.9893
3281.2864,90.9534
3282.2507,90.9167
3283.2148,90.8826
3284.1792,90.8528
3285.1433,90.827
3286.1077,90.8035
3287.0718,90.7801
3288.0361,90.7554
3289.0002,90.7297
3289.9646,90.704
3290.9287,90.6793
3291.8931,90.656
3292.8572,90.6333
3293.8215,90.6096
3294.7856,90.5831
3295.7500,90.5528
3296.7141,90.5198
3297.6785,90.4866
3298.6426,90.4574
3299.6069,90.4357
3300.5710,90.4225
3301.5354,90.415
3302.4995,90.407
3303.4639,90.3914
3304.4280,90.3636
3305.3923,90.324
3306.3564,90.2774
3307.3208,90.2317
3308.2849,90.1938
3309.2493,90.1665
3310.2134,90.1482
3311.1777,90.1344
3312.1418,90.12
3313.1062,90.1021
3314.0703,90.0805
3315.0347,90.057
3315.9988,90.0332
3316.9631,90.0101
3317.9272,89.9869
3318.8916,89.9624
3319.8557,89.9356
3320.8201,89.9061
3321.7842,89.874
3322.7485,89.8401
3323.7126,89.8054
3324.6770,89.772
3325.6411,89.7426
3326.6055,89.7196
3327.5696,89.7039
3328.5339,89.6934
3329.4980,89.6839
3330.4624,89.6709
3331.4265,89.6525
3332.3909,89.6302
3333.3550,89.6084
3334.3193,89.5919
3335.2834,89.5832
3336.2478,89.5808
3337.2119,89.5804
3338.1763,89.5772
3339.1404,89.5673
3340.1047,89.5494
3341.0688,89.5239
3342.0332,89.493
3342.9973,89.4603
3343.9617,89.4304
3344.9258,89.4075
3345.8901,89.394
3346.8542,89.3887
3347.8186,89.3872
3348.7827,89.3837
3349.7471,89.3732
3350.7112,89.3539
3351.6755,89.3267
3352.6396,89.2947
3353.6040,89.2614
3354.5681,89.2309
3355.5325,89.2072
3356.4966,89.1935
3357.4609,89.191
3358.4250,89.1965
3359.3894,89.2032
3360.3535,89.2026
3361.3179,89.1889
3362.2820,89.1628
3363.2463,89.1321
3364.2104,89.1081
3365.1748,89.0999
3366.1389,89.1096
3367.1033,89.1312
3368.0674,89.1541
3369.0317,89.1689
3369.9958,89.1721
3370.9602,89.1664
3371.9243,89.1569
3372.8887,89.1475
3373.8528,89.1385
3374.8171,89.1274
3375.7813,89.1124
3376.7456,89.0944
3377.7097,89.0774
3378.6741,89.0648
3379.6382,89.0571
3380.6025,89.0512
3381.5667,89.0424
3382.5310,89.0282
3383.4951,89.0105
3384.4595,88.9941
3385.4236,88.9836
3386.3879,88.9802
3387.3521,88.9819
3388.3164,88.9855
3389.2805,88.9887
3390.2449,88.9908
3391.2090,88.9921
3392.1733,88.9933
3393.1375,88.996
3394.1018,89.003
3395.0659,89.0179
3396.0303,89.0431
3396.9944,89.0759
3397.9587,89.1085
3398.9229,89.1309
3399.8872,89.1369
3400.8513,89.1277
3401.8157,89.1115
3402.7798,89.0984
3403.7441,89.0947
3404.7083,89.1004
3405.6726,89.1116
3406.6367,89.1236
3407.6011,89.1343
3408.5652,89.1436
3409.5295,89.1524
3410.4937,89.1611
3411.4580,89.1694
3412.4221,89.1765
3413.3865,89.182
3414.3506,89.1846
3415.3149,89.1828
3416.2791,89.1748
3417.2434,89.1616
3418.2075,89.1487
3419.1719,89.1455
3420.1360,89.1607
3421.1003,89.197
3422.0645,89.2484
3423.0288,89.3034
3423.9929,89.3506
3424.9573,89.3842
3425.9214,89.4054
3426.8857,89.4206
3427.8499,89.4377
3428.8142,89.4627
3429.7783,89.4971
3430.7427,89.5385
3431.7068,89.5819
3432.6711,89.6226
3433.6353,89.6574
3434.5996,89.6843
3435.5637,89.7026
3436.5281,89.7117
3437.4922,89.7124
3438.4565,89.7058
3439.4207,89.6943
3440.3850,89.6797
3441.3491,89.6637
3442.3135,89.6478
3443.2776,89.635
3444.2419,89.6318
3445.2061,89.6469
3446.1704,89.6877
3447.1345,89.7541
3448.0989,89.8362
3449.0630,89.9191
3450.0273,89.99
3450.9915,90.0438
3451.9558,90.0823
3452.9199,90.11
3453.8843,90.1314
3454.8484,90.1483
3455.8127,90.1599
3456.7769,90.1648
3457.7412,90.1625
3458.7053,90.1554
3459.6697,90.1488
3460.6338,90.1492
3461.5981,90.1623
3462.5623,90.1908
3463.5266,90.233
3464.4907,90.284
3465.4551,90.337
3466.4192,90.3857
3467.3835,90.426
3468.3477,90.4558
3469.3120,90.4755
3470.2761,90.4873
3471.2405,90.4956
3472.2046,90.5061
3473.1689,90.5242
3474.1331,90.552
3475.0974,90.5859
3476.0615,90.6172
3477.0259,90.6368
3477.9900,90.6404
3478.9543,90.6314
3479.9185,90.6207
3480.8828,90.6211
3481.8469,90.6403
3482.8113,90.6756
3483.7754,90.718
3484.7397,90.7587
3485.7039,90.7953
3486.6682,90.8314
3487.6323,90.873
3488.5967,90.9222
3489.5608,90.9745
3490.5251,91.021
3491.4893,91.0545
3492.4536,91.0752
3493.4177,91.0903
3494.3821,91.1105
3495.3462,91.141
3496.3105,91.1759
3497.2747,91.2
3498.2390,91.1998
3499.2031,91.1734
3500.1675,91.1356
3501.1316,91.1146
3502.0959,91.1385
3503.0601,91.2148
3504.0244,91.3224
3504.9885,91.4273
3505.9529,91.5067
3506.9170,91.5593
3507.8813,91.6003
3508.8455,91.6502
3509.8098,91.7219
3510.7739,91.8135
3511.7383,91.912
3512.7024,92.0045
3513.6667,92.0863
3514.6309,92.1592
3515.5952,92.2244
3516.5593,92.2789
3517.5237,92.3155
3518.4878,92.3282
3519.4521,92.3177
3520.4163,92.2935
3521.3806,92.2715
3522.3447,92.2677
3523.3091,92.2909
3524.2732,92.3399
3525.2375,92.4096
3526.2017,92.4978
3527.1660,92.6079
3528.1301,92.7414
3529.0945,92.8905
3530.0586,93.0366
3531.0229,93.1613
3531.9871,93.2566
3532.9514,93.3284
3533.9155,93.3922
3534.8799,93.4661
3535.8440,93.5615
3536.8083,93.6753
3537.7725,93.7906
3538.7368,93.8866
3539.7009,93.9495
3540.6653,93.9765
3541.6294,93.9744
3542.5938,93.9602
3543.5579,93.9622
3544.5222,94.0128
3545.4863,94.1265
3546.4507,94.2835
3547.4148,94.4432
3548.3792,94.5768
3549.3433,94.6818
3550.3076,94.7758
3551.2717,94.8822
3552.2361,95.0156
3553.2002,95.1713
3554.1646,95.3281
3555.1287,95.4632
3556.0930,95.5655
3557.0571,95.6343
3558.0215,95.6732
3558.9856,95.6864
3559.9500,95.678
3560.9141,95.6524
3561.8784,95.6141
3562.8425,95.5665
3563.8069,95.5161
3564.7710,95.4918
3565.7354,95.5627
3566.6995,95.7877
3567.6638,96.1168
3568.6279,96.4159
3569.5923,96.6044
3570.5564,96.6992
3571.5208,96.7536
3572.4849,96.803
3573.4492,96.8548
3574.4133,96.9019
3575.3777,96.9391
3576.3418,96.9694
3577.3062,97.0001
3578.2703,97.0357
3579.2346,97.0727
3580.1987,97.1036
3581.1631,97.1243
3582.1272,97.1381
3583.0916,97.1505
3584.0557,97.1611
3585.0200,97.1703
3585.9841,97.1989
3586.9485,97.2763
3587.9126,97.383
3588.8770,97.4484
3589.8411,97.4325
3590.8054,97.3582
3591.7695,97.2701
3592.7339,97.1986
3593.6980,97.1552
3594.6624,97.1397
3595.6265,97.1428
3596.5908,97.1542
3597.5549,97.1756
3598.5193,97.2218
3599.4834,97.3057
3600.4478,97.4221
3601.4119,97.5472
3602.3762,97.6573
3603.3403,97.7464
3604.3047,97.8225
3605.2688,97.8951
3606.2332,97.9696
3607.1973,98.048
3608.1616,98.1215
3609.1257,98.1662
3610.0901,98.1578
3611.0542,98.0937
3612.0186,97.9983
3612.9829,97.9088
3613.9470,97.8557
3614.9114,97.851
3615.8755,97.8889
3616.8398,97.9551
3617.8040,98.0382
3618.7683,98.1262
3619.7324,98.1877
3620.6968,98.1774
3621.6609,98.0889
3622.6252,97.9797
3623.5894,97.9302
3624.5537,97.9855
3625.5178,98.1258
3626.4822,98.2834
3627.4463,98.4075
3628.4106,98.5042
3629.3748,98.5608
3630.3391,98.522
3631.3032,98.3972
3632.2676,98.2679
3633.2317,98.2035
3634.1960,98.2168
3635.1602,98.2762
3636.1245,98.3381
3637.0886,98.3746
3638.0530,98.3796
3639.0171,98.3572
3639.9814,98.311
3640.9456,98.244
3641.9099,98.1679
3642.8740,98.1054
3643.8384,98.076
3644.8025,98.0686
3645.7668,98.0244
3646.7310,97.8821
3647.6953,97.7166
3648.6594,97.7638
3649.6238,98.0462
3650.5879,98.2728
3651.5522,98.2938
3652.5164,98.196
3653.4807,98.0988
3654.4448,98.0495
3655.4092,98.0341
3656.3733,98.0192
3657.3376,97.9827
3658.3018,97.928
3659.2661,97.881
3660.2302,97.8664
3661.1946,97.885
3662.1587,97.9165
3663.1230,97.9446
3664.0872,97.9761
3665.0515,98.0305
3666.0156,98.1084
3666.9800,98.1718
3667.9441,98.1714
3668.9084,98.1067
3669.8726,98.0328
3670.8369,97.9929
3671.8010,97.9874
3672.7654,97.9924
3673.7295,97.9828
3674.6938,97.9718
3675.6580,98.0137
3676.6223,98.1108
3677.5864,98.1955
3678.5508,98.2338
3679.5149,98.2453
3680.4792,98.2483
3681.4434,98.2409
3682.4077,98.2233
3683.3718,98.2159
3684.3362,98.2467
3685.3003,98.3166
3686.2646,98.3763
3687.2288,98.3567
3688.1931,98.2559
3689.1572,98.173
3690.1216,98.1818
3691.0857,98.245
3692.0500,98.3085
3693.0142,98.3655
3693.9785,98.4315
3694.9426,98.5161
3695.9070,98.6213
3696.8711,98.747
3697.8354,98.8909
3698.7996,99.0452
3699.7639,99.1959
3700.7280,99.3284
3701.6924,99.4294
3702.6565,99.4871
3703.6208,99.5005
3704.5850,99.4896
3705.5493,99.4836
3706.5134,99.4959
3707.4778,99.5132
3708.4419,99.5191
3709.4063,99.5506
3710.3704,99.7055
3711.3347,100.008
3712.2988,100.316
3713.2632,100.471
3714.2273,100.457
3715.1917,100.351
3716.1558,100.228
3717.1201,100.122
3718.0842,100.028
3719.0486,99.931
3720.0127,99.8245
3720.9771,99.7144
3721.9412,99.6142
3722.9055,99.5378
3723.8696,99.4964
3724.8340,99.4937
3725.7981,99.5233
3726.7625,99.5763
3727.7266,99.6602
3728.6909,99.7678
3729.6550,99.8895
3730.6194,99.9879
3731.5835,100.008
3732.5479,99.9194
3733.5120,99.7853
3734.4763,99.742
3735.4404,99.8373
3736.4048,99.9484
3737.3689,99.9671
3738.3333,99.9396
3739.2974,99.9968
3740.2617,100.233
3741.2258,100.639
3742.1902,101.083
3743.1543,101.373
3744.1187,101.374
3745.0828,101.113
3746.0471,100.741
3747.0112,100.414
3747.9756,100.221
3748.9397,100.178
3749.9041,100.281
3750.8682,100.484
3751.8325,100.638
3752.7966,100.618
3753.7610,100.461
3754.7251,100.287
3755.6895,100.181
3756.6536,100.162
3757.6179,100.21
3758.5820,100.295
3759.5464,100.381
3760.5105,100.437
3761.4749,100.46
3762.4390,100.465
3763.4033,100.471
3764.3674,100.483
3765.3318,100.499
3766.2959,100.515
3767.2603,100.533
3768.2244,100.56
3769.1887,100.598
3770.1528,100.64
3771.1172,100.665
3772.0813,100.66
3773.0457,100.633
3774.0098,100.607
3774.9741,100.598
3775.9382,100.602
3776.9026,100.603
3777.8667,100.592
3778.8311,100.572
3779.7952,100.54
3780.7595,100.488
3781.7236,100.416
3782.6880,100.344
3783.6521,100.296
3784.6165,100.294
3785.5806,100.345
3786.5449,100.431
3787.5090,100.521
3788.4734,100.59
3789.4375,100.632
3790.4019,100.653
3791.3660,100.659
3792.3303,100.645
3793.2944,100.592
3794.2588,100.491
3795.2229,100.357
3796.1873,100.233
3797.1514,100.16
3798.1157,100.149
3799.0798,100.176
3800.0442,100.206
3801.0083,100.223
3801.9727,100.231
3802.9368,100.246
3803.9011,100.296
3804.8652,100.404
3805.8296,100.556
3806.7937,100.693
3807.7581,100.745
3808.7222,100.685
3809.6865,100.57
3810.6506,100.492
3811.6150,100.51
3812.5791,100.602
3813.5435,100.677
3814.5076,100.646
3815.4719,100.495
3816.4360,100.288
3817.4004,100.112
3818.3645,100.023
3819.3289,100.038
3820.2930,100.13
3821.2573,100.226
3822.2214,100.247
3823.1858,100.175
3824.1499,100.066
3825.1143,99.9967
3826.0784,100.005
3827.0427,100.083
3828.0068,100.188
3828.9712,100.274
3829.9353,100.313
3830.8997,100.308
3831.8638,100.282
3832.8281,100.259
3833.7922,100.247
3834.7566,100.226
3835.7207,100.163
3836.6851,100.048
3837.6492,99.9168
3838.6135,99.8319
3839.5776,99.8257
3840.5420,99.8879
3841.5061,99.9915
3842.4705,100.105
3843.4346,100.192
3844.3989,100.215
3845.3630,100.166
3846.3274,100.083
3847.2915,100.038
3848.2559,100.109
3849.2200,100.325
3850.1843,100.641
3851.1484,100.946
3852.1128,101.153
3853.0769,101.272
3854.0413,101.258
3855.0054,101.022
3855.9697,100.639
3856.9338,100.287
3857.8982,100.083
3858.8623,100.036
3859.8267,100.078
3860.7908,100.114
3861.7551,100.087
3862.7192,100.017
3863.6836,99.9754
3864.6477,100.005
3865.6121,100.094
3866.5762,100.195
3867.5405,100.259
3868.5046,100.257
3869.4690,100.197
3870.4331,100.125
3871.3975,100.089
3872.3616,100.096
3873.3259,100.128
3874.2900,100.166
3875.2544,100.207
3876.2185,100.25
3877.1829,100.281
3878.1470,100.279
3879.1113,100.23
3880.0754,100.154
3881.0398,100.098
3882.0039,100.104
3882.9683,100.182
3883.9324,100.31
3884.8967,100.434
3885.8608,100.504
3886.8252,100.499
3887.7893,100.436
3888.7537,100.347
3889.7178,100.26
3890.6821,100.188
3891.6462,100.142
3892.6106,100.115
3893.5747,100.097
3894.5391,100.093
3895.5032,100.117
3896.4675,100.167
3897.4316,100.211
3898.3960,100.213
3899.3601,100.167
3900.3245,100.094
3901.2886,100.025
3902.2529,99.9919
3903.2170,100.013
3904.1814,100.081
3905.1455,100.163
3906.1099,100.23
3907.0740,100.277
3908.0383,100.314
3909.0024,100.345
3909.9668,100.366
3910.9309,100.373
3911.8953,100.365
3912.8594,100.35
3913.8237,100.332
3914.7878,100.316
3915.7522,100.302
3916.7163,100.29
3917.6807,100.272
3918.6448,100.236
3919.6091,100.17
3920.5732,100.084
3921.5376,100.001
3922.5017,99.9449
3923.4661,99.9311
3924.4302,99.954
3925.3945,99.9884
3926.3586,100.006
3927.3230,99.9934
3928.2871,99.9573
3929.2515,99.9158
3930.2156,99.8936
3931.1799,99.9124
3932.1440,99.975
3933.1084,100.06
3934.0725,100.137
3935.0369,100.192
3936.0010,100.223
3936.9653,100.233
3937.9294,100.225
3938.8938,100.196
3939.8579,100.148
3940.8223,100.094
3941.7864,100.048
3942.7507,100.024
3943.7148,100.017
3944.6792,100.016
3945.6433,100.006
3946.6077,99.9846
3947.5718,99.9561
3948.5361,99.9335
3949.5002,99.9282
3950.4646,99.9422
3951.4287,99.968
3952.3931,99.9964
3953.3572,100.021
3954.3215,100.039
3955.2856,100.047
3956.2500,100.046
3957.2141,100.036
3958.1785,100.02
3959.1426,100.004
3960.1069,99.9981
3961.0710,100.008
3962.0354,100.036
3962.9995,100.076
3963.9639,100.118
3964.9280,100.149
3965.8923,100.165
3966.8564,100.163
3967.8208,100.144
3968.7849,100.111
3969.7493,100.07
3970.7134,100.027
3971.6777,99.9909
3972.6418,99.9695
3973.6062,99.968
3974.5703,99.985
3975.5347,100.013
3976.4988,100.041
3977.4631,100.061
3978.4272,100.069
3979.3916,100.069
3980.3557,100.066
3981.3201,100.064
3982.2842,100.065
3983.2485,100.065
3984.2126,100.063
3985.1770,100.055
3986.1411,100.045
3987.1055,100.033
3988.0696,100.023
3989.0339,100.01
3989.9980,99.9936
3990.9624,99.9714
3991.9265,99.9478
3992.8909,99.9316
3993.8550,99.931
3994.8193,99.9488
3995.7834,99.979
3996.7478,100.01
3997.7119,100.031
3998.6763,100.039
3999.6404,100.038
4000.6047,99.8265

##### Extended Information
[Comments]
Sample name
Comment
User
Division
Company,HANKYONG

[Detailed Information]
Creation date,4/24/2024 2:20 PM

Data array type,Linear data array
Horizontal axis,Wavenumber [cm-1]
Vertical axis,%T
Start,649.893 cm-1
End,4000.6 cm-1
Data interval,0.964233 cm-1
Data points,3476    

[Measurement Information]
Model Name,FT/IR-4700typeA
Serial Number,D056761788

Accessory,ATR PRO ONE
Accessory S/N,C174761809
Incident angle,45 deg

Measurement Date,4/24/2024 2:18 PM

Light Source,Standard
Detector,TGS
Accumulation,32
Resolution,4 cm-1
Zero Filling,On
Apodization,Cosine
Gain,Auto (4)
Aperture,Auto (7.1 mm)
Scanning Speed,Auto (2 mm/sec)
Filter,Auto (30000 Hz)

