TITLE,
DATA TYPE,INFRARED SPECTRUM
ORIGIN,JASCO
OWNER,
DATE,24/04/24
TIME,15:50:26
SPECTROMETER/DATA SYSTEM,
LOCALE,1033
RESOLUTION,
DELTAX,0.964233
XUNITS,1/CM
YUNITS,TRANSMITTANCE
FIRSTX,  649.8934
LASTX, 4000.6047
NPOINTS,    3476
FIRSTY,    98.11982
MAXY,   102.27039
MINY,    80.46163
XYDATA
649.8934,98.1198
650.8576,98.2629
651.8218,98.4166
652.7861,98.5635
653.7503,98.6854
654.7145,98.7753
655.6788,98.837
656.6430,98.8787
657.6072,98.9045
658.5715,98.9122
659.5357,98.9017
660.4999,98.8861
661.4642,98.8962
662.4284,98.9687
663.3926,99.1319
664.3569,99.4016
665.3211,99.7802
666.2853,100.235
667.2496,100.643
668.2138,100.779
669.1780,100.55
670.1423,100.176
671.1065,99.905
672.0707,99.8104
673.0350,99.8676
673.9992,100.027
674.9634,100.233
675.9277,100.43
676.8919,100.571
677.8561,100.639
678.8204,100.637
679.7846,100.58
680.7488,100.49
681.7131,100.387
682.6773,100.3
683.6415,100.256
684.6058,100.273
685.5700,100.351
686.5342,100.473
687.4985,100.604
688.4627,100.707
689.4269,100.758
690.3912,100.756
691.3554,100.72
692.3196,100.672
693.2839,100.629
694.2481,100.597
695.2123,100.58
696.1766,100.581
697.1408,100.594
698.1050,100.616
699.0693,100.64
700.0335,100.656
700.9977,100.653
701.9620,100.62
702.9262,100.556
703.8904,100.474
704.8547,100.392
705.8189,100.332
706.7831,100.305
707.7474,100.315
708.7116,100.354
709.6758,100.408
710.6401,100.464
711.6043,100.508
712.5685,100.525
713.5328,100.506
714.4970,100.446
715.4612,100.329
716.4255,100.226
717.3897,100.131
718.3539,100.077
719.3182,100.066
720.2824,100.07
721.2466,100.075
722.2109,100.066
723.1751,100.04
724.1393,99.9969
725.1036,99.9365
726.0678,99.8584
727.0320,99.7634
727.9963,99.6593
728.9605,99.5619
729.9247,99.4908
730.8890,99.4599
731.8532,99.4687
732.8174,99.499
733.7817,99.5191
734.7459,99.496
735.7101,99.4084
736.6744,99.2571
737.6386,99.0648
738.6028,98.868
739.5671,98.7025
740.5313,98.59
741.4955,98.5319
742.4598,98.5118
743.4240,98.5043
744.3882,98.4841
745.3525,98.4319
746.3167,98.3355
747.2809,98.1916
748.2452,98.0071
749.2094,97.8009
750.1736,97.6016
751.1379,97.4385
752.1021,97.3301
753.0663,97.2751
754.0306,97.2529
754.9948,97.2328
755.9590,97.1891
756.9233,97.1109
757.8875,97.0034
758.8517,96.881
759.8160,96.7586
760.7802,96.6464
761.7444,96.5508
762.7087,96.4781
763.6729,96.436
764.6371,96.4312
765.6014,96.4634
766.5656,96.521
767.5298,96.582
768.4941,96.6212
769.4583,96.6201
770.4225,96.5751
771.3868,96.4987
772.3510,96.4143
773.3152,96.3464
774.2795,96.3108
775.2437,96.3089
776.2079,96.3278
777.1722,96.3456
778.1364,96.3397
779.1006,96.2947
780.0649,96.2086
781.0291,96.0933
781.9933,95.9703
782.9576,95.8624
783.9218,95.7847
784.8860,95.7391
785.8503,95.7139
786.8145,95.6904
787.7787,95.6511
788.7430,95.5858
789.7072,95.4944
790.6714,95.3838
791.6357,95.2647
792.5999,95.1487
793.5641,95.0469
794.5284,94.9682
795.4926,94.9179
796.4568,94.8945
797.4211,94.8894
798.3853,94.8893
799.3495,94.8807
800.3138,94.8555
801.2780,94.8122
802.2422,94.7546
803.2065,94.688
804.1707,94.6167
805.1349,94.5435
806.0992,94.4709
807.0634,94.4017
808.0276,94.3388
808.9919,94.2846
809.9561,94.2406
810.9203,94.2087
811.8846,94.1911
812.8488,94.1904
813.8130,94.2073
814.7773,94.2396
815.7415,94.2826
816.7057,94.3322
817.6700,94.3884
818.6342,94.4567
819.5984,94.5463
820.5627,94.6651
821.5269,94.8161
822.4911,94.9959
823.4554,95.197
824.4196,95.4116
825.3839,95.6347
826.3481,95.8643
827.3123,96.0985
828.2766,96.3321
829.2408,96.5543
830.2050,96.7502
831.1693,96.9051
832.1335,97.011
833.0977,97.0705
834.0620,97.0965
835.0262,97.1062
835.9904,97.1124
836.9547,97.1168
837.9189,97.1076
838.8831,97.0649
839.8474,96.9692
840.8116,96.8098
841.7758,96.5892
842.7401,96.323
843.7043,96.0359
844.6685,95.7556
845.6328,95.5072
846.5970,95.3078
847.5612,95.1629
848.5255,95.0646
849.4897,94.9948
850.4539,94.9309
851.4182,94.8539
852.3824,94.7549
853.3466,94.6388
854.3109,94.5225
855.2751,94.4306
856.2393,94.3887
857.2036,94.4164
858.1678,94.5211
859.1320,94.6935
860.0963,94.9065
861.0605,95.1195
862.0247,95.2889
862.9890,95.3828
863.9532,95.3951
864.9174,95.352
865.8817,95.3061
866.8459,95.317
867.8101,95.4248
868.7744,95.6295
869.7386,95.8857
870.7028,96.1198
871.6671,96.2637
872.6313,96.2878
873.5955,96.2173
874.5598,96.1219
875.5240,96.083
876.4882,96.1565
877.4525,96.3488
878.4167,96.6172
879.3809,96.893
880.3452,97.1152
881.3094,97.2563
882.2736,97.3301
883.2379,97.3799
884.2021,97.4564
885.1663,97.5969
886.1306,97.8127
887.0948,98.0893
888.0590,98.394
889.0233,98.6886
889.9875,98.94
890.9517,99.1292
891.9160,99.2547
892.8802,99.3321
893.8444,99.3877
894.8087,99.449
895.7729,99.5344
896.7371,99.647
897.7014,99.7741
898.6656,99.8941
899.6298,99.9867
900.5941,100.041
901.5583,100.058
902.5225,100.05
903.4868,100.029
904.4510,100.017
905.4152,100.019
906.3795,100.03
907.3437,100.047
908.3079,100.064
909.2722,100.075
910.2364,100.071
911.2006,100.048
912.1649,100.007
913.1291,99.9561
914.0933,99.906
915.0576,99.8656
916.0218,99.8378
916.9860,99.8196
917.9503,99.804
918.9145,99.7847
919.8787,99.7586
920.8430,99.7269
921.8072,99.6951
922.7714,99.6705
923.7357,99.6594
924.6999,99.6641
925.6641,99.6818
926.6284,99.7056
927.5926,99.7279
928.5568,99.7455
929.5211,99.7603
930.4853,99.7779
931.4495,99.8018
932.4138,99.8292
933.3780,99.8513
934.3422,99.8579
935.3065,99.8436
936.2707,99.8116
937.2349,99.7716
938.1992,99.7351
939.1634,99.709
940.1276,99.6951
941.0919,99.6909
942.0561,99.6937
943.0203,99.7022
943.9846,99.7154
944.9488,99.7306
945.9130,99.742
946.8773,99.7431
947.8415,99.7294
948.8057,99.7014
949.7700,99.6638
950.7342,99.6348
951.6984,99.642
952.6627,99.6464
953.6269,99.6437
954.5911,99.6299
955.5554,99.6052
956.5196,99.574
957.4838,99.5421
958.4481,99.5131
959.4123,99.4853
960.3765,99.4522
961.3408,99.4064
962.3050,99.3443
963.2692,99.2697
964.2335,99.1936
965.1977,99.1314
966.1619,99.0964
967.1262,99.0956
968.0904,99.1263
969.0546,99.1775
970.0189,99.2344
970.9831,99.2832
971.9473,99.3159
972.9116,99.3319
973.8758,99.3357
974.8400,99.3339
975.8043,99.3311
976.7685,99.3282
977.7327,99.323
978.6970,99.3121
979.6612,99.2925
980.6254,99.2626
981.5897,99.2215
982.5539,99.1689
983.5181,99.1041
984.4824,99.0263
985.4466,98.9348
986.4108,98.8295
987.3751,98.711
988.3393,98.581
989.3035,98.4417
990.2678,98.2945
991.2320,98.1382
992.1962,97.9677
993.1605,97.7744
994.1247,97.5495
995.0889,97.2881
996.0532,96.9919
997.0174,96.6703
997.9816,96.337
998.9459,96.0051
999.9101,95.6827
1000.8743,95.37
1001.8386,95.059
1002.8028,94.7355
1003.7670,94.3842
1004.7313,93.9919
1005.6955,93.5526
1006.6597,93.0683
1007.6240,92.5486
1008.5882,92.0079
1009.5524,91.4616
1010.5167,90.9224
1011.4809,90.3985
1012.4451,89.8924
1013.4094,89.4007
1014.3736,88.9156
1015.3378,88.4266
1016.3021,87.9243
1017.2663,87.4043
1018.2305,86.8713
1019.1948,86.3408
1020.1590,85.8371
1021.1232,85.3879
1022.0875,85.0164
1023.0517,84.7337
1024.0160,84.5347
1024.9802,84.3987
1025.9445,84.2962
1026.9087,84.1999
1027.8729,84.098
1028.8372,84.0018
1029.8014,83.9458
1030.7656,83.9776
1031.7299,84.1439
1032.6941,84.4767
1033.6583,84.9853
1034.6226,85.6539
1035.5868,86.4457
1036.5510,87.3118
1037.5153,88.2015
1038.4795,89.0707
1039.4437,89.8874
1040.4080,90.6343
1041.3722,91.3093
1042.3364,91.9231
1043.3007,92.4943
1044.2649,93.042
1045.2291,93.5771
1046.1934,94.0961
1047.1576,94.5804
1048.1218,95.0026
1049.0861,95.3381
1050.0503,95.5778
1051.0145,95.7353
1051.9788,95.8456
1052.9430,95.9537
1053.9072,96.0994
1054.8715,96.3034
1055.8357,96.5617
1056.7999,96.8493
1057.7642,97.1324
1058.7284,97.3829
1059.6926,97.5898
1060.6569,97.761
1061.6211,97.9164
1062.5853,98.0768
1063.5496,98.2547
1064.5138,98.4491
1065.4780,98.6477
1066.4423,98.8329
1067.4065,98.9898
1068.3707,99.1099
1069.3350,99.191
1070.2992,99.234
1071.2634,99.2408
1072.2277,99.2148
1073.1919,99.1627
1074.1561,99.0954
1075.1204,99.0049
1076.0846,98.9098
1077.0488,98.8343
1078.0131,98.7801
1078.9773,98.7429
1079.9415,98.716
1080.9058,98.6935
1081.8700,98.6724
1082.8342,98.653
1083.7985,98.6361
1084.7627,98.6214
1085.7269,98.6063
1086.6912,98.5871
1087.6554,98.5616
1088.6196,98.5319
1089.5839,98.5052
1090.5481,98.4923
1091.5123,98.5043
1092.4766,98.548
1093.4408,98.6236
1094.4050,98.7238
1095.3693,98.8345
1096.3335,98.9377
1097.2977,99.0152
1098.2620,99.0522
1099.2262,99.0422
1100.1904,98.9894
1101.1547,98.909
1102.1189,98.8229
1103.0831,98.7518
1104.0474,98.7064
1105.0116,98.6823
1105.9758,98.6611
1106.9401,98.6179
1107.9043,98.5315
1108.8685,98.3924
1109.8328,98.2057
1110.7970,97.9882
1111.7612,97.7626
1112.7255,97.5508
1113.6897,97.3679
1114.6539,97.2177
1115.6182,97.0912
1116.5824,96.9688
1117.5466,96.8279
1118.5109,96.6528
1119.4751,96.4439
1120.4393,96.2214
1121.4036,96.0213
1122.3678,95.8845
1123.3320,95.8446
1124.2963,95.9185
1125.2605,96.1023
1126.2247,96.3737
1127.1890,96.6968
1128.1532,97.0304
1129.1174,97.3364
1130.0817,97.5873
1131.0459,97.7715
1132.0101,97.8934
1132.9744,97.9703
1133.9386,98.0242
1134.9028,98.0747
1135.8671,98.1322
1136.8313,98.195
1137.7955,98.2497
1138.7598,98.2757
1139.7240,98.252
1140.6882,98.1657
1141.6525,98.0182
1142.6167,97.8278
1143.5809,97.6253
1144.5452,97.4445
1145.5094,97.3116
1146.4736,97.2374
1147.4379,97.2164
1148.4021,97.2323
1149.3663,97.2664
1150.3306,97.3052
1151.2948,97.3446
1152.2590,97.39
1153.2233,97.4535
1154.1875,97.5492
1155.1517,97.6893
1156.1160,97.8796
1157.0802,98.117
1158.0444,98.3886
1159.0087,98.6743
1159.9729,98.9518
1160.9371,99.2033
1161.9014,99.42
1162.8656,99.6032
1163.8298,99.7607
1164.7941,99.9004
1165.7583,100.025
1166.7225,100.13
1167.6868,100.207
1168.6510,100.25
1169.6152,100.252
1170.5795,100.149
1171.5437,100.03
1172.5079,99.9069
1173.4722,99.7867
1174.4364,99.667
1175.4006,99.5372
1176.3649,99.3816
1177.3291,99.1853
1178.2933,98.9398
1179.2576,98.6463
1180.2218,98.3158
1181.1860,97.965
1182.1503,97.6099
1183.1145,97.2599
1184.0787,96.9153
1185.0430,96.5679
1186.0072,96.2059
1186.9714,95.8193
1187.9357,95.4041
1188.8999,94.964
1189.8641,94.5086
1190.8284,94.0498
1191.7926,93.5976
1192.7568,93.1571
1193.7211,92.7279
1194.6853,92.3058
1195.6495,91.8859
1196.6138,91.4659
1197.5780,91.0472
1198.5422,90.6346
1199.5065,90.1795
1200.4707,89.805
1201.4349,89.4566
1202.3992,89.1416
1203.3634,88.8674
1204.3276,88.6404
1205.2919,88.4632
1206.2561,88.3336
1207.2203,88.2452
1208.1846,88.1895
1209.1488,88.1586
1210.1130,88.1464
1211.0773,88.1488
1212.0415,88.1638
1213.0057,88.191
1213.9700,88.2322
1214.9342,88.2899
1215.8984,88.3662
1216.8627,88.4599
1217.8269,88.5657
1218.7911,88.6763
1219.7554,88.7842
1220.7196,88.8844
1221.6838,88.9754
1222.6481,89.0572
1223.6123,89.1304
1224.5765,89.1947
1225.5408,89.2501
1226.5050,89.2976
1227.4692,89.3396
1228.4335,89.379
1229.3977,89.4177
1230.3619,89.4561
1231.3262,89.4932
1232.2904,89.5287
1233.2546,89.564
1234.2189,89.6029
1235.1831,89.6507
1236.1473,89.7121
1237.1116,89.7888
1238.0758,89.8778
1239.0400,89.9712
1240.0043,90.0569
1240.9685,90.1221
1241.9327,90.1561
1242.8970,90.153
1243.8612,90.1125
1244.8254,90.037
1245.7897,89.9297
1246.7539,89.7917
1247.7181,89.6215
1248.6824,89.4166
1249.6466,89.1742
1250.6108,88.893
1251.5751,88.5739
1252.5393,88.2206
1253.5035,87.8405
1254.4678,87.4436
1255.4320,87.0412
1256.3962,86.6441
1257.3605,86.2601
1258.3247,85.8941
1259.2889,85.5492
1260.2532,85.2283
1261.2174,84.9351
1262.1816,84.6746
1263.1459,84.4529
1264.1101,84.2758
1265.0743,84.149
1266.0386,84.0777
1267.0028,84.0661
1267.9670,84.1179
1268.9313,84.2357
1269.8955,84.4197
1270.8597,84.6671
1271.8240,84.9713
1272.7882,85.3227
1273.7524,85.7106
1274.7167,86.1262
1275.6809,86.5629
1276.6451,87.0165
1277.6094,87.4841
1278.5736,87.9622
1279.5378,88.446
1280.5021,88.9301
1281.4663,89.4087
1282.4305,89.8776
1283.3948,90.3342
1284.3590,90.7775
1285.3232,91.207
1286.2875,91.6221
1287.2517,92.021
1288.2159,92.4015
1289.1802,92.762
1290.1444,93.1026
1291.1086,93.4249
1292.0729,93.7307
1293.0371,94.0206
1294.0013,94.2938
1294.9656,94.5483
1295.9298,94.7826
1296.8940,94.9974
1297.8583,95.196
1298.8225,95.3834
1299.7867,95.5644
1300.7510,95.7417
1301.7152,95.9161
1302.6794,96.0861
1303.6437,96.2494
1304.6079,96.4037
1305.5721,96.5467
1306.5364,96.6763
1307.5006,96.7908
1308.4648,96.8915
1309.4291,96.9826
1310.3933,97.0709
1311.3575,97.1629
1312.3218,97.2613
1313.2860,97.3641
1314.2502,97.4661
1315.2145,97.5626
1316.1787,97.6527
1317.1429,97.7389
1318.1072,97.8248
1319.0714,97.912
1320.0356,97.9996
1320.9999,98.0852
1321.9641,98.1667
1322.9283,98.2429
1323.8926,98.3132
1324.8568,98.3772
1325.8210,98.4346
1326.7853,98.4857
1327.7495,98.5317
1328.7137,98.5743
1329.6780,98.6148
1330.6422,98.653
1331.6064,98.6866
1332.5707,98.7118
1333.5349,98.7266
1334.4991,98.7325
1335.4634,98.7365
1336.4276,98.7496
1337.3918,98.7805
1338.3561,98.8279
1339.3203,98.8781
1340.2845,98.9153
1341.2488,98.9323
1342.2130,98.9311
1343.1772,98.9168
1344.1415,98.8938
1345.1057,98.865
1346.0699,98.8309
1347.0342,98.789
1347.9984,98.7355
1348.9626,98.668
1349.9269,98.5874
1350.8911,98.4978
1351.8553,98.4059
1352.8196,98.3187
1353.7838,98.2418
1354.7480,98.1767
1355.7123,98.1197
1356.6765,98.0627
1357.6407,97.9989
1358.6050,97.9271
1359.5692,97.8552
1360.5334,97.7962
1361.4977,97.7577
1362.4619,97.7366
1363.4261,97.7241
1364.3904,97.7147
1365.3546,97.7071
1366.3188,97.7021
1367.2831,97.7018
1368.2473,97.7083
1369.2115,97.7232
1370.1758,97.7497
1371.1400,97.7965
1372.1042,97.8778
1373.0685,98.0045
1374.0327,98.1713
1374.9969,98.3551
1375.9612,98.5301
1376.9254,98.6857
1377.8896,98.8265
1378.8539,98.9622
1379.8181,99.0964
1380.7823,99.2218
1381.7466,99.3234
1382.7108,99.3906
1383.6750,99.4278
1384.6393,99.4566
1385.6035,99.5063
1386.5677,99.5946
1387.5320,99.7133
1388.4962,99.8366
1389.4604,99.927
1390.4247,99.9839
1391.3889,100.01
1392.3531,100.017
1393.3174,100.019
1394.2816,100.019
1395.2458,100.01
1396.2101,99.9813
1397.1743,99.9326
1398.1385,99.8716
1399.1028,99.8036
1400.0670,99.7265
1401.0313,99.6324
1401.9955,99.5118
1402.9597,99.3577
1403.9240,99.1671
1404.8882,98.9432
1405.8524,98.6951
1406.8167,98.4344
1407.7809,98.1662
1408.7451,97.886
1409.7094,97.5859
1410.6736,97.2641
1411.6378,96.9288
1412.6021,96.591
1413.5663,96.2541
1414.5305,95.9104
1415.4948,95.5503
1416.4590,95.1738
1417.4232,94.7946
1418.3875,94.4404
1419.3517,94.1468
1420.3159,93.9337
1421.2802,93.7838
1422.2444,93.6573
1423.2086,93.5221
1424.1729,93.3683
1425.1371,93.2044
1426.1013,93.0472
1427.0656,92.9143
1428.0298,92.8208
1428.9940,92.774
1429.9583,92.7672
1430.9225,92.7785
1431.8867,92.7823
1432.8510,92.7635
1433.8152,92.7269
1434.7794,92.6924
1435.7437,92.6721
1436.7079,92.6506
1437.6721,92.6003
1438.6364,92.5051
1439.6006,92.3529
1440.5648,92.1291
1441.5291,91.8269
1442.4933,91.4558
1443.4575,91.0369
1444.4218,90.5912
1445.3860,90.1321
1446.3502,89.6688
1447.3145,89.2209
1448.2787,88.8244
1449.2429,88.516
1450.2072,88.3043
1451.1714,88.1613
1452.1356,88.0435
1453.0999,87.9233
1454.0641,87.8103
1455.0283,87.749
1455.9926,87.7644
1456.9568,87.7802
1457.9210,87.7108
1458.8853,87.613
1459.8495,87.5494
1460.8137,87.5094
1461.7780,87.4862
1462.7422,87.5269
1463.7064,87.7168
1464.6707,88.1063
1465.6349,88.6404
1466.5991,89.194
1467.5634,89.6768
1468.5276,90.0769
1469.4918,90.4469
1470.4561,90.8801
1471.4203,91.4632
1472.3845,92.1781
1473.3488,92.8504
1474.3130,93.315
1475.2772,93.5757
1476.2415,93.7133
1477.2057,93.7747
1478.1699,93.7688
1479.1342,93.6918
1480.0984,93.5417
1481.0626,93.3222
1482.0269,93.0426
1482.9911,92.7165
1483.9553,92.3573
1484.9196,91.9754
1485.8838,91.5756
1486.8480,91.1533
1487.8123,90.6887
1488.7765,90.1656
1489.7407,89.6234
1490.7050,89.1458
1491.6692,88.7662
1492.6334,88.4467
1493.5977,88.1338
1494.5619,87.797
1495.5261,87.4318
1496.4904,87.0466
1497.4546,86.6557
1498.4188,86.2836
1499.3831,85.9504
1500.3473,85.6443
1501.3115,85.3293
1502.2758,84.9728
1503.2400,84.562
1504.2042,84.0985
1505.1685,83.562
1506.1327,82.8549
1507.0969,81.9259
1508.0612,81.0797
1509.0254,80.6216
1509.9896,80.4734
1510.9539,80.4616
1511.9181,80.5174
1512.8823,80.6796
1513.8466,81.049
1514.8108,81.7175
1515.7750,82.6874
1516.7393,83.8475
1517.7035,85.0628
1518.6677,86.302
1519.6320,87.654
1520.5962,89.1913
1521.5604,90.8136
1522.5247,92.2916
1523.4889,93.481
1524.4531,94.421
1525.4174,95.2353
1526.3816,95.9989
1527.3458,96.6939
1528.3101,97.2619
1529.2743,97.6763
1530.2385,97.9718
1531.2028,98.226
1532.1670,98.5051
1533.1312,98.8004
1534.0955,99.028
1535.0597,99.114
1536.0239,99.0542
1536.9882,98.9107
1537.9524,98.8033
1538.9166,98.8949
1539.8809,99.263
1540.8451,99.6722
1541.8093,99.8023
1542.7736,99.7535
1543.7378,99.6665
1544.7020,99.5998
1545.6663,99.5444
1546.6305,99.4861
1547.5947,99.4197
1548.5590,99.3464
1549.5232,99.2694
1550.4874,99.1893
1551.4517,99.1009
1552.4159,98.9933
1553.3801,98.8554
1554.3444,98.6845
1555.3086,98.5001
1556.2728,98.3537
1557.2371,98.2901
1558.2013,98.226
1559.1655,98.0286
1560.1298,97.8173
1561.0940,97.7211
1562.0582,97.6877
1563.0225,97.6296
1563.9867,97.5058
1564.9509,97.3204
1565.9152,97.0996
1566.8794,96.8677
1567.8436,96.6276
1568.8079,96.3644
1569.7721,96.077
1570.7363,95.7888
1571.7006,95.515
1572.6648,95.2424
1573.6290,94.9439
1574.5933,94.5932
1575.5575,94.1753
1576.5217,93.7156
1577.4860,93.2894
1578.4502,92.9444
1579.4144,92.6514
1580.3787,92.3538
1581.3429,92.021
1582.3071,91.6616
1583.2714,91.3068
1584.2356,90.986
1585.1998,90.7094
1586.1641,90.4705
1587.1283,90.2604
1588.0925,90.077
1589.0568,89.9233
1590.0210,89.8
1590.9852,89.703
1591.9495,89.6265
1592.9137,89.5666
1593.8779,89.522
1594.8422,89.4915
1595.8064,89.4733
1596.7706,89.4672
1597.7349,89.476
1598.6991,89.504
1599.6633,89.5542
1600.6276,89.6259
1601.5918,89.7145
1602.5560,89.8144
1603.5203,89.9211
1604.4845,90.0325
1605.4487,90.1493
1606.4130,90.275
1607.3772,90.4157
1608.3414,90.5748
1609.3057,90.7459
1610.2699,90.9118
1611.2341,91.0528
1612.1984,91.1614
1613.1626,91.2564
1614.1268,91.389
1615.0911,91.6225
1616.0553,91.9705
1617.0195,92.3561
1617.9838,92.6852
1618.9480,92.932
1619.9122,93.1268
1620.8765,93.3163
1621.8407,93.5403
1622.8049,93.807
1623.7692,94.0804
1624.7334,94.3135
1625.6976,94.4934
1626.6619,94.6424
1627.6261,94.7838
1628.5903,94.9178
1629.5546,95.0226
1630.5188,95.0741
1631.4830,95.066
1632.4473,95.0225
1633.4115,95.0009
1634.3757,95.0653
1635.3400,95.2142
1636.3042,95.3541
1637.2684,95.423
1638.2327,95.4456
1639.1969,95.4472
1640.1611,95.4239
1641.1254,95.3646
1642.0896,95.2679
1643.0538,95.1507
1644.0181,95.0484
1644.9823,94.9966
1645.9465,94.9867
1646.9108,94.9561
1647.8750,94.8607
1648.8392,94.7064
1649.8035,94.5125
1650.7677,94.3105
1651.7319,94.1516
1652.6962,94.0483
1653.6604,93.9381
1654.6246,93.8296
1655.5889,93.7803
1656.5531,93.7606
1657.5173,93.7123
1658.4816,93.611
1659.4458,93.4676
1660.4100,93.3081
1661.3743,93.1505
1662.3385,92.9981
1663.3027,92.8514
1664.2670,92.7139
1665.2312,92.5845
1666.1954,92.4604
1667.1597,92.3458
1668.1239,92.2477
1669.0881,92.1617
1670.0524,92.071
1671.0166,91.9675
1671.9808,91.8568
1672.9451,91.7453
1673.9093,91.641
1674.8735,91.5588
1675.8378,91.5137
1676.8020,91.507
1677.7662,91.5192
1678.7305,91.52
1679.6947,91.4887
1680.6589,91.4326
1681.6232,91.389
1682.5874,91.3979
1683.5516,91.4457
1684.5159,91.4747
1685.4801,91.4768
1686.4443,91.4789
1687.4086,91.4798
1688.3728,91.4601
1689.3370,91.4063
1690.3013,91.3162
1691.2655,91.1947
1692.2297,91.0507
1693.1940,90.8963
1694.1582,90.7467
1695.1224,90.6154
1696.0867,90.5044
1697.0509,90.3985
1698.0151,90.2747
1698.9794,90.1297
1699.9436,89.9951
1700.9078,89.9119
1701.8721,89.8918
1702.8363,89.9122
1703.8005,89.9395
1704.7648,89.9492
1705.7290,89.9337
1706.6932,89.9019
1707.6575,89.8712
1708.6217,89.8553
1709.5859,89.856
1710.5502,89.8661
1711.5144,89.8779
1712.4786,89.8911
1713.4429,89.9199
1714.4071,89.9976
1715.3713,90.1642
1716.3356,90.4196
1717.2998,90.6958
1718.2640,90.9338
1719.2283,91.1428
1720.1925,91.3516
1721.1567,91.572
1722.1210,91.8044
1723.0852,92.0447
1724.0494,92.2865
1725.0137,92.5248
1725.9779,92.7592
1726.9421,92.9916
1727.9064,93.2191
1728.8706,93.4333
1729.8348,93.6317
1730.7991,93.8337
1731.7633,94.0821
1732.7275,94.4095
1733.6918,94.7856
1734.6560,95.1363
1735.6202,95.4228
1736.5845,95.6548
1737.5487,95.8592
1738.5129,96.0624
1739.4772,96.2816
1740.4414,96.5134
1741.4056,96.7363
1742.3699,96.9301
1743.3341,97.0909
1744.2983,97.2266
1745.2626,97.3464
1746.2268,97.4579
1747.1910,97.5679
1748.1553,97.6801
1749.1195,97.7888
1750.0837,97.8834
1751.0480,97.9616
1752.0122,98.0312
1752.9764,98.0989
1753.9407,98.1667
1754.9049,98.2346
1755.8691,98.3012
1756.8334,98.3621
1757.7976,98.4126
1758.7618,98.4538
1759.7261,98.4934
1760.6903,98.5397
1761.6545,98.5931
1762.6188,98.6458
1763.5830,98.689
1764.5472,98.7194
1765.5115,98.7403
1766.4757,98.76
1767.4399,98.7892
1768.4042,98.8385
1769.3684,98.9161
1770.3326,99.0212
1771.2969,99.1377
1772.2611,99.2385
1773.2253,99.3077
1774.1896,99.3519
1775.1538,99.385
1776.1180,99.4151
1777.0823,99.447
1778.0465,99.4855
1779.0107,99.5323
1779.9750,99.5823
1780.9392,99.6266
1781.9034,99.661
1782.8677,99.6897
1783.8319,99.7199
1784.7961,99.754
1785.7604,99.7867
1786.7246,99.8088
1787.6888,99.8152
1788.6531,99.8118
1789.6173,99.8165
1790.5815,99.8494
1791.5458,99.9125
1792.5100,99.9821
1793.4742,100.033
1794.4385,100.06
1795.4027,100.07
1796.3669,100.07
1797.3312,100.067
1798.2954,100.071
1799.2596,100.087
1800.2239,100.113
1801.1881,100.138
1802.1523,100.155
1803.1166,100.163
1804.0808,100.163
1805.0450,100.155
1806.0093,100.146
1806.9735,100.14
1807.9377,100.144
1808.9020,100.16
1809.8662,100.183
1810.8304,100.206
1811.7947,100.221
1812.7589,100.225
1813.7231,100.222
1814.6874,100.217
1815.6516,100.212
1816.6158,100.209
1817.5801,100.206
1818.5443,100.199
1819.5085,100.187
1820.4728,100.171
1821.4370,100.153
1822.4012,100.14
1823.3655,100.134
1824.3297,100.136
1825.2939,100.141
1826.2582,100.15
1827.2224,100.162
1828.1866,100.175
1829.1509,100.184
1830.1151,100.181
1831.0793,100.169
1832.0436,100.158
1833.0078,100.149
1833.9720,100.146
1834.9363,100.151
1835.9005,100.162
1836.8647,100.171
1837.8290,100.171
1838.7932,100.155
1839.7574,100.127
1840.7217,100.095
1841.6859,100.075
1842.6501,100.081
1843.6144,100.109
1844.5786,100.144
1845.5428,100.17
1846.5071,100.184
1847.4713,100.19
1848.4355,100.191
1849.3998,100.191
1850.3640,100.188
1851.3282,100.185
1852.2925,100.18
1853.2567,100.173
1854.2209,100.166
1855.1852,100.159
1856.1494,100.154
1857.1136,100.151
1858.0779,100.151
1859.0421,100.152
1860.0063,100.156
1860.9706,100.159
1861.9348,100.161
1862.8990,100.16
1863.8633,100.157
1864.8275,100.155
1865.7917,100.161
1866.7560,100.181
1867.7202,100.208
1868.6844,100.229
1869.6487,100.236
1870.6129,100.233
1871.5771,100.227
1872.5414,100.222
1873.5056,100.217
1874.4698,100.211
1875.4341,100.206
1876.3983,100.199
1877.3625,100.193
1878.3268,100.188
1879.2910,100.186
1880.2552,100.189
1881.2195,100.198
1882.1837,100.209
1883.1479,100.218
1884.1122,100.222
1885.0764,100.221
1886.0406,100.218
1887.0049,100.216
1887.9691,100.22
1888.9333,100.227
1889.8976,100.235
1890.8618,100.242
1891.8260,100.248
1892.7903,100.254
1893.7545,100.262
1894.7188,100.27
1895.6830,100.276
1896.6472,100.276
1897.6115,100.271
1898.5757,100.263
1899.5399,100.257
1900.5042,100.254
1901.4684,100.257
1902.4326,100.262
1903.3969,100.267
1904.3611,100.273
1905.3253,100.279
1906.2896,100.288
1907.2538,100.301
1908.2180,100.316
1909.1823,100.328
1910.1465,100.333
1911.1107,100.328
1912.0750,100.315
1913.0392,100.3
1914.0034,100.286
1914.9677,100.278
1915.9319,100.278
1916.8961,100.284
1917.8604,100.292
1918.8246,100.298
1919.7888,100.304
1920.7531,100.313
1921.7173,100.324
1922.6815,100.335
1923.6458,100.34
1924.6100,100.338
1925.5742,100.328
1926.5385,100.315
1927.5027,100.305
1928.4669,100.298
1929.4312,100.296
1930.3954,100.296
1931.3596,100.295
1932.3239,100.294
1933.2881,100.292
1934.2523,100.292
1935.2166,100.292
1936.1808,100.291
1937.1450,100.289
1938.1093,100.287
1939.0735,100.287
1940.0377,100.291
1941.0020,100.303
1941.9662,100.317
1942.9304,100.329
1943.8947,100.334
1944.8589,100.331
1945.8231,100.324
1946.7874,100.316
1947.7516,100.308
1948.7158,100.301
1949.6801,100.294
1950.6443,100.289
1951.6085,100.287
1952.5728,100.286
1953.5370,100.288
1954.5012,100.29
1955.4655,100.291
1956.4297,100.29
1957.3939,100.288
1958.3582,100.285
1959.3224,100.284
1960.2866,100.283
1961.2509,100.282
1962.2151,100.281
1963.1793,100.282
1964.1436,100.287
1965.1078,100.294
1966.0720,100.302
1967.0363,100.306
1968.0005,100.301
1968.9647,100.289
1969.9290,100.274
1970.8932,100.262
1971.8574,100.257
1972.8217,100.258
1973.7859,100.263
1974.7501,100.269
1975.7144,100.272
1976.6786,100.271
1977.6428,100.268
1978.6071,100.264
1979.5713,100.261
1980.5355,100.259
1981.4998,100.259
1982.4640,100.261
1983.4282,100.265
1984.3925,100.27
1985.3567,100.274
1986.3209,100.276
1987.2852,100.275
1988.2494,100.273
1989.2136,100.271
1990.1779,100.271
1991.1421,100.273
1992.1063,100.276
1993.0706,100.276
1994.0348,100.274
1994.9990,100.27
1995.9633,100.266
1996.9275,100.262
1997.8917,100.26
1998.8560,100.257
1999.8202,100.253
2000.7844,100.247
2001.7487,100.241
2002.7129,100.236
2003.6771,100.235
2004.6414,100.238
2005.6056,100.244
2006.5698,100.25
2007.5341,100.252
2008.4983,100.249
2009.4625,100.239
2010.4268,100.224
2011.3910,100.209
2012.3552,100.198
2013.3195,100.194
2014.2837,100.199
2015.2479,100.211
2016.2122,100.225
2017.1764,100.236
2018.1406,100.24
2019.1049,100.236
2020.0691,100.227
2021.0333,100.215
2021.9976,100.203
2022.9618,100.192
2023.9260,100.183
2024.8903,100.176
2025.8545,100.172
2026.8187,100.171
2027.7830,100.174
2028.7472,100.178
2029.7114,100.182
2030.6757,100.184
2031.6399,100.182
2032.6041,100.177
2033.5684,100.17
2034.5326,100.163
2035.4968,100.159
2036.4611,100.157
2037.4253,100.159
2038.3895,100.163
2039.3538,100.167
2040.3180,100.17
2041.2822,100.169
2042.2465,100.164
2043.2107,100.156
2044.1749,100.147
2045.1392,100.138
2046.1034,100.132
2047.0676,100.13
2048.0320,100.129
2048.9961,100.131
2049.9604,100.134
2050.9246,100.137
2051.8889,100.139
2052.8530,100.139
2053.8174,100.136
2054.7815,100.129
2055.7458,100.122
2056.7100,100.115
2057.6743,100.11
2058.6384,100.11
2059.6028,100.114
2060.5669,100.121
2061.5313,100.131
2062.4954,100.141
2063.4597,100.15
2064.4238,100.155
2065.3882,100.155
2066.3523,100.15
2067.3167,100.141
2068.2808,100.131
2069.2451,100.124
2070.2092,100.121
2071.1736,100.122
2072.1377,100.125
2073.1021,100.13
2074.0662,100.134
2075.0305,100.138
2075.9946,100.14
2076.9590,100.142
2077.9231,100.143
2078.8875,100.142
2079.8516,100.14
2080.8159,100.138
2081.7800,100.138
2082.7444,100.141
2083.7085,100.147
2084.6729,100.154
2085.6370,100.16
2086.6013,100.165
2087.5654,100.167
2088.5298,100.167
2089.4939,100.166
2090.4583,100.165
2091.4224,100.164
2092.3867,100.164
2093.3508,100.164
2094.3152,100.166
2095.2793,100.169
2096.2437,100.171
2097.2078,100.172
2098.1721,100.171
2099.1362,100.169
2100.1006,100.168
2101.0647,100.169
2102.0291,100.173
2102.9932,100.177
2103.9575,100.179
2104.9216,100.179
2105.8860,100.175
2106.8501,100.171
2107.8145,100.17
2108.7786,100.173
2109.7429,100.178
2110.7070,100.183
2111.6714,100.184
2112.6355,100.182
2113.5999,100.176
2114.5640,100.17
2115.5283,100.167
2116.4924,100.166
2117.4568,100.168
2118.4209,100.17
2119.3853,100.171
2120.3494,100.169
2121.3137,100.165
2122.2778,100.159
2123.2422,100.153
2124.2063,100.15
2125.1707,100.151
2126.1348,100.156
2127.0991,100.165
2128.0632,100.175
2129.0276,100.181
2129.9917,100.182
2130.9561,100.177
2131.9202,100.167
2132.8845,100.158
2133.8486,100.152
2134.8130,100.153
2135.7771,100.159
2136.7415,100.169
2137.7056,100.178
2138.6699,100.182
2139.6340,100.181
2140.5984,100.175
2141.5625,100.165
2142.5269,100.155
2143.4910,100.147
2144.4553,100.142
2145.4194,100.14
2146.3838,100.142
2147.3479,100.147
2148.3123,100.155
2149.2764,100.163
2150.2407,100.168
2151.2048,100.17
2152.1692,100.167
2153.1333,100.16
2154.0977,100.15
2155.0618,100.142
2156.0261,100.136
2156.9902,100.137
2157.9546,100.145
2158.9187,100.157
2159.8831,100.17
2160.8472,100.181
2161.8115,100.186
2162.7756,100.184
2163.7400,100.176
2164.7041,100.164
2165.6685,100.152
2166.6326,100.145
2167.5969,100.143
2168.5610,100.147
2169.5254,100.155
2170.4895,100.164
2171.4539,100.169
2172.4180,100.17
2173.3823,100.167
2174.3464,100.16
2175.3108,100.153
2176.2749,100.147
2177.2393,100.143
2178.2034,100.143
2179.1677,100.147
2180.1318,100.153
2181.0962,100.161
2182.0603,100.17
2183.0247,100.178
2183.9888,100.181
2184.9531,100.179
2185.9172,100.171
2186.8816,100.161
2187.8457,100.151
2188.8101,100.145
2189.7742,100.146
2190.7385,100.154
2191.7026,100.167
2192.6670,100.181
2193.6311,100.191
2194.5955,100.194
2195.5596,100.19
2196.5239,100.181
2197.4880,100.17
2198.4524,100.161
2199.4165,100.155
2200.3809,100.153
2201.3450,100.155
2202.3093,100.16
2203.2734,100.166
2204.2378,100.17
2205.2019,100.172
2206.1663,100.171
2207.1304,100.167
2208.0947,100.162
2209.0588,100.158
2210.0232,100.156
2210.9873,100.157
2211.9517,100.159
2212.9158,100.16
2213.8801,100.158
2214.8442,100.153
2215.8086,100.147
2216.7727,100.143
2217.7371,100.142
2218.7012,100.144
2219.6655,100.149
2220.6296,100.153
2221.5940,100.153
2222.5581,100.148
2223.5225,100.139
2224.4866,100.129
2225.4509,100.12
2226.4150,100.114
2227.3794,100.111
2228.3435,100.11
2229.3079,100.109
2230.2720,100.108
2231.2363,100.108
2232.2004,100.108
2233.1648,100.111
2234.1289,100.116
2235.0933,100.12
2236.0574,100.122
2237.0217,100.119
2237.9858,100.112
2238.9502,100.103
2239.9143,100.092
2240.8787,100.083
2241.8428,100.076
2242.8071,100.071
2243.7712,100.067
2244.7356,100.063
2245.6997,100.058
2246.6641,100.051
2247.6282,100.044
2248.5925,100.036
2249.5566,100.029
2250.5210,100.023
2251.4851,100.017
2252.4495,100.012
2253.4136,100.006
2254.3779,99.9991
2255.3420,99.9891
2256.3064,99.9764
2257.2705,99.9618
2258.2349,99.9471
2259.1990,99.9342
2260.1633,99.9252
2261.1274,99.9211
2262.0918,99.9218
2263.0559,99.926
2264.0203,99.9314
2264.9844,99.9348
2265.9487,99.9333
2266.9128,99.9251
2267.8772,99.9098
2268.8413,99.8893
2269.8057,99.8669
2270.7698,99.8472
2271.7341,99.8341
2272.6982,99.8303
2273.6626,99.8361
2274.6267,99.849
2275.5911,99.8649
2276.5552,99.8786
2277.5195,99.8859
2278.4836,99.8846
2279.4480,99.8752
2280.4121,99.8601
2281.3765,99.8425
2282.3406,99.8252
2283.3049,99.8094
2284.2690,99.7951
2285.2334,99.7806
2286.1975,99.7627
2287.1619,99.7376
2288.1260,99.7022
2289.0903,99.6557
2290.0544,99.6008
2291.0188,99.5398
2291.9829,99.4828
2292.9473,99.4352
2293.9114,99.3986
2294.8757,99.3702
2295.8398,99.3442
2296.8042,99.3139
2297.7683,99.2746
2298.7327,99.2238
2299.6968,99.162
2300.6611,99.0914
2301.6252,99.0152
2302.5896,98.9372
2303.5537,98.8612
2304.5181,98.7902
2305.4822,98.7255
2306.4465,98.6662
2307.4106,98.6087
2308.3750,98.5487
2309.3391,98.4825
2310.3035,98.4092
2311.2676,98.3303
2312.2319,98.2488
2313.1960,98.1672
2314.1604,98.0872
2315.1245,98.0105
2316.0889,97.9394
2317.0530,97.8767
2318.0173,97.824
2318.9814,97.7792
2319.9458,97.7359
2320.9099,97.6864
2321.8743,97.6281
2322.8384,97.5677
2323.8027,97.5205
2324.7668,97.5027
2325.7312,97.5248
2326.6953,97.5867
2327.6597,97.6774
2328.6238,97.7771
2329.5881,97.8609
2330.5522,97.9072
2331.5166,97.9062
2332.4807,97.8649
2333.4451,97.8048
2334.4092,97.7537
2335.3735,97.7358
2336.3376,97.7625
2337.3020,97.8273
2338.2661,97.9081
2339.2305,97.9787
2340.1946,98.0202
2341.1589,98.0224
2342.1230,97.9773
2343.0874,97.8828
2344.0515,97.7625
2345.0159,97.665
2345.9800,97.6199
2346.9443,97.6134
2347.9084,97.6093
2348.8728,97.5808
2349.8369,97.5282
2350.8013,97.4829
2351.7654,97.4995
2352.7297,97.6328
2353.6938,97.9044
2354.6582,98.2863
2355.6223,98.7301
2356.5867,99.2024
2357.5508,99.6722
2358.5151,100.075
2359.4792,100.32
2360.4436,100.357
2361.4077,100.197
2362.3721,99.9002
2363.3362,99.5491
2364.3005,99.2116
2365.2646,98.9253
2366.2290,98.6948
2367.1931,98.5009
2368.1575,98.3199
2369.1216,98.141
2370.0859,97.9729
2371.0500,97.8374
2372.0144,97.7573
2372.9785,97.7469
2373.9429,97.8092
2374.9070,97.9363
2375.8713,98.1139
2376.8354,98.3237
2377.7998,98.5467
2378.7639,98.7654
2379.7283,98.9657
2380.6924,99.1384
2381.6567,99.2808
2382.6208,99.3956
2383.5852,99.4901
2384.5493,99.573
2385.5137,99.6519
2386.4778,99.7309
2387.4421,99.8087
2388.4063,99.8798
2389.3706,99.9366
2390.3347,99.9727
2391.2991,99.9863
2392.2632,99.9815
2393.2275,99.9678
2394.1917,99.9566
2395.1560,99.9522
2396.1201,99.9559
2397.0845,99.9754
2398.0486,100.004
2399.0129,100.031
2399.9771,100.049
2400.9414,100.052
2401.9055,100.041
2402.8699,100.021
2403.8340,99.9968
2404.7983,99.9767
2405.7625,99.9657
2406.7268,99.967
2407.6909,99.9802
2408.6553,100.002
2409.6194,100.024
2410.5837,100.041
2411.5479,100.046
2412.5122,100.038
2413.4763,100.019
2414.4407,99.9954
2415.4048,99.9753
2416.3691,99.9636
2417.3333,99.9627
2418.2976,99.9711
2419.2617,99.9852
2420.2261,100
2421.1902,100.012
2422.1545,100.018
2423.1187,100.017
2424.0830,100.012
2425.0471,100.004
2426.0115,99.9989
2426.9756,99.9967
2427.9399,99.9975
2428.9041,99.9996
2429.8684,100.001
2430.8325,100.001
2431.7969,100
2432.7610,99.9994
2433.7253,99.9994
2434.6895,100
2435.6538,100
2436.6179,99.9982
2437.5823,99.9933
2438.5464,99.9864
2439.5107,99.9794
2440.4749,99.9748
2441.4392,99.9739
2442.4033,99.9767
2443.3677,99.982
2444.3318,99.988
2445.2961,99.9937
2446.2603,99.9986
2447.2246,100.003
2448.1887,100.006
2449.1531,100.008
2450.1172,100.007
2451.0815,100.004
2452.0457,99.9977
2453.0100,99.9893
2453.9741,99.9807
2454.9385,99.9737
2455.9026,99.9701
2456.8669,99.9709
2457.8311,99.9759
2458.7954,99.9831
2459.7595,99.9894
2460.7239,99.9916
2461.6880,99.9878
2462.6523,99.9782
2463.6165,99.9658
2464.5808,99.955
2465.5449,99.9503
2466.5093,99.9544
2467.4734,99.9665
2468.4377,99.9828
2469.4019,99.9975
2470.3662,100.005
2471.3303,100.001
2472.2947,99.9863
2473.2588,99.9654
2474.2231,99.945
2475.1873,99.9321
2476.1516,99.931
2477.1157,99.9421
2478.0801,99.9617
2479.0442,99.9839
2480.0085,100.003
2480.9727,100.014
2481.9370,100.017
2482.9011,100.012
2483.8655,100.001
2484.8296,99.9864
2485.7939,99.9707
2486.7581,99.957
2487.7224,99.9486
2488.6865,99.9478
2489.6509,99.9554
2490.6150,99.9689
2491.5793,99.9838
2492.5435,99.9948
2493.5078,99.9978
2494.4719,99.9914
2495.4363,99.9772
2496.4004,99.9594
2497.3647,99.9431
2498.3289,99.9329
2499.2932,99.9325
2500.2573,99.9426
2501.2217,99.9609
2502.1858,99.9815
2503.1501,99.9969
2504.1143,100.001
2505.0786,99.9915
2506.0427,99.9717
2507.0071,99.949
2507.9712,99.9316
2508.9355,99.9247
2509.8997,99.9288
2510.8640,99.9402
2511.8281,99.9534
2512.7925,99.964
2513.7566,99.9697
2514.7209,99.9698
2515.6851,99.9649
2516.6494,99.9559
2517.6135,99.9443
2518.5779,99.9329
2519.5420,99.9252
2520.5063,99.9245
2521.4705,99.932
2522.4348,99.9457
2523.3989,99.9609
2524.3633,99.9722
2525.3274,99.9756
2526.2917,99.9708
2527.2559,99.9604
2528.2202,99.9486
2529.1843,99.9392
2530.1487,99.9345
2531.1128,99.9351
2532.0771,99.9406
2533.0413,99.95
2534.0056,99.9621
2534.9697,99.9743
2535.9341,99.9836
2536.8982,99.9866
2537.8625,99.9818
2538.8267,99.9708
2539.7910,99.958
2540.7551,99.9492
2541.7195,99.9492
2542.6836,99.9591
2543.6479,99.976
2544.6121,99.9941
2545.5764,100.007
2546.5405,100.01
2547.5049,100.004
2548.4690,99.9893
2549.4333,99.973
2550.3975,99.96
2551.3618,99.9541
2552.3259,99.9561
2553.2903,99.964
2554.2544,99.974
2555.2188,99.9819
2556.1829,99.9851
2557.1472,99.9828
2558.1113,99.9765
2559.0757,99.9687
2560.0398,99.9626
2561.0042,99.9605
2561.9683,99.9635
2562.9326,99.9707
2563.8967,99.9797
2564.8611,99.9874
2565.8252,99.9917
2566.7896,99.9916
2567.7537,99.9886
2568.7180,99.9853
2569.6821,99.9848
2570.6465,99.9888
2571.6106,99.9971
2572.5750,100.008
2573.5391,100.018
2574.5034,100.024
2575.4675,100.025
2576.4319,100.021
2577.3960,100.013
2578.3604,100.003
2579.3245,99.9943
2580.2888,99.9893
2581.2529,99.9894
2582.2173,99.9945
2583.1814,100.002
2584.1458,100.009
2585.1099,100.013
2586.0742,100.012
2587.0383,100.007
2588.0027,100.001
2588.9668,99.9952
2589.9312,99.9906
2590.8953,99.9873
2591.8596,99.9855
2592.8237,99.9856
2593.7881,99.9888
2594.7522,99.9959
2595.7166,100.006
2596.6807,100.018
2597.6450,100.029
2598.6091,100.036
2599.5735,100.038
2600.5376,100.035
2601.5020,100.03
2602.4661,100.023
2603.4304,100.017
2604.3945,100.013
2605.3589,100.01
2606.3230,100.009
2607.2874,100.008
2608.2515,100.008
2609.2158,100.007
2610.1799,100.008
2611.1443,100.011
2612.1084,100.016
2613.0728,100.021
2614.0369,100.024
2615.0012,100.024
2615.9653,100.02
2616.9297,100.017
2617.8938,100.016
2618.8582,100.018
2619.8223,100.024
2620.7866,100.031
2621.7507,100.036
2622.7151,100.039
2623.6792,100.038
2624.6436,100.033
2625.6077,100.026
2626.5720,100.017
2627.5361,100.009
2628.5005,100.005
2629.4646,100.007
2630.4290,100.016
2631.3931,100.029
2632.3574,100.044
2633.3215,100.054
2634.2859,100.055
2635.2500,100.046
2636.2144,100.031
2637.1785,100.015
2638.1428,100.006
2639.1069,100.007
2640.0713,100.019
2641.0354,100.038
2641.9998,100.058
2642.9639,100.072
2643.9282,100.076
2644.8923,100.07
2645.8567,100.058
2646.8208,100.044
2647.7852,100.034
2648.7493,100.027
2649.7136,100.025
2650.6777,100.028
2651.6421,100.033
2652.6062,100.041
2653.5706,100.05
2654.5347,100.057
2655.4990,100.062
2656.4631,100.063
2657.4275,100.059
2658.3916,100.054
2659.3560,100.049
2660.3201,100.046
2661.2844,100.046
2662.2485,100.051
2663.2129,100.058
2664.1770,100.068
2665.1414,100.077
2666.1055,100.084
2667.0698,100.088
2668.0339,100.088
2668.9983,100.084
2669.9624,100.078
2670.9268,100.07
2671.8909,100.065
2672.8552,100.064
2673.8193,100.068
2674.7837,100.077
2675.7478,100.089
2676.7122,100.099
2677.6763,100.102
2678.6406,100.096
2679.6047,100.082
2680.5691,100.065
2681.5332,100.05
2682.4976,100.041
2683.4617,100.041
2684.4260,100.047
2685.3901,100.057
2686.3545,100.067
2687.3186,100.075
2688.2830,100.077
2689.2471,100.074
2690.2114,100.066
2691.1755,100.053
2692.1399,100.039
2693.1040,100.027
2694.0684,100.021
2695.0325,100.023
2695.9968,100.03
2696.9609,100.038
2697.9253,100.044
2698.8894,100.044
2699.8538,100.036
2700.8179,100.022
2701.7822,100.004
2702.7463,99.9879
2703.7107,99.9755
2704.6748,99.9683
2705.6392,99.9654
2706.6033,99.9643
2707.5676,99.9624
2708.5317,99.9585
2709.4961,99.9534
2710.4602,99.9488
2711.4246,99.946
2712.3887,99.9447
2713.3530,99.9433
2714.3171,99.9401
2715.2815,99.9352
2716.2456,99.9304
2717.2100,99.9285
2718.1741,99.9311
2719.1384,99.9374
2720.1025,99.9445
2721.0669,99.9483
2722.0310,99.9457
2722.9954,99.9359
2723.9595,99.9208
2724.9238,99.904
2725.8879,99.8898
2726.8523,99.8813
2727.8164,99.8797
2728.7808,99.8836
2729.7449,99.8901
2730.7092,99.8957
2731.6733,99.8979
2732.6377,99.8961
2733.6018,99.8913
2734.5662,99.8855
2735.5303,99.8803
2736.4946,99.8763
2737.4587,99.8736
2738.4231,99.8719
2739.3872,99.8718
2740.3516,99.8739
2741.3157,99.8795
2742.2800,99.889
2743.2441,99.9013
2744.2085,99.9141
2745.1726,99.9239
2746.1370,99.9278
2747.1011,99.9241
2748.0654,99.9138
2749.0295,99.9005
2749.9939,99.8889
2750.9580,99.8832
2751.9224,99.8853
2752.8865,99.8939
2753.8508,99.905
2754.8149,99.914
2755.7793,99.9176
2756.7434,99.9156
2757.7078,99.9107
2758.6719,99.9073
2759.6362,99.9082
2760.6003,99.9137
2761.5647,99.9209
2762.5288,99.9257
2763.4932,99.9255
2764.4573,99.9207
2765.4216,99.9145
2766.3857,99.9112
2767.3501,99.9129
2768.3142,99.9184
2769.2786,99.9234
2770.2427,99.9231
2771.2070,99.9147
2772.1711,99.8991
2773.1355,99.8804
2774.0996,99.8639
2775.0640,99.854
2776.0281,99.8521
2776.9924,99.8552
2777.9565,99.8594
2778.9209,99.8607
2779.8850,99.8568
2780.8494,99.848
2781.8135,99.8369
2782.7778,99.8277
2783.7419,99.824
2784.7063,99.8271
2785.6704,99.8349
2786.6348,99.8428
2787.5989,99.8451
2788.5632,99.8378
2789.5273,99.8201
2790.4917,99.7955
2791.4558,99.7699
2792.4202,99.749
2793.3843,99.7367
2794.3486,99.7329
2795.3127,99.7342
2796.2771,99.7353
2797.2412,99.7314
2798.2056,99.72
2799.1697,99.7016
2800.1340,99.6789
2801.0981,99.6556
2802.0625,99.6346
2803.0266,99.6173
2803.9910,99.6037
2804.9551,99.5928
2805.9194,99.5829
2806.8835,99.5717
2807.8479,99.5569
2808.8120,99.5365
2809.7764,99.5099
2810.7405,99.4782
2811.7048,99.4443
2812.6689,99.4115
2813.6333,99.3818
2814.5974,99.3548
2815.5618,99.3281
2816.5259,99.2986
2817.4902,99.264
2818.4543,99.2233
2819.4187,99.1767
2820.3828,99.1252
2821.3472,99.0693
2822.3113,99.0095
2823.2756,98.9459
2824.2397,98.8788
2825.2041,98.8077
2826.1682,98.7317
2827.1326,98.6495
2828.0967,98.5608
2829.0610,98.4668
2830.0251,98.3705
2830.9895,98.2753
2831.9536,98.1839
2832.9180,98.0975
2833.8821,98.0162
2834.8464,97.9403
2835.8105,97.8708
2836.7749,97.8102
2837.7390,97.7607
2838.7034,97.7244
2839.6675,97.7026
2840.6318,97.6962
2841.5959,97.7063
2842.5603,97.734
2843.5244,97.7795
2844.4888,97.8416
2845.4529,97.9181
2846.4172,98.0055
2847.3813,98.0996
2848.3457,98.1949
2849.3098,98.2846
2850.2742,98.361
2851.2383,98.4176
2852.2026,98.4505
2853.1667,98.4599
2854.1311,98.4493
2855.0952,98.4237
2856.0596,98.3877
2857.0237,98.345
2857.9880,98.298
2858.9521,98.2491
2859.9165,98.2004
2860.8806,98.1535
2861.8450,98.1094
2862.8091,98.0685
2863.7734,98.0314
2864.7375,97.9991
2865.7019,97.9735
2866.6660,97.9564
2867.6304,97.9485
2868.5945,97.9485
2869.5588,97.953
2870.5229,97.9574
2871.4873,97.9575
2872.4514,97.9513
2873.4158,97.9397
2874.3799,97.9266
2875.3442,97.9171
2876.3083,97.9154
2877.2727,97.923
2878.2368,97.938
2879.2012,97.9564
2880.1653,97.9736
2881.1296,97.9869
2882.0938,97.9953
2883.0581,98
2884.0222,98.0023
2884.9866,98.0027
2885.9507,98.0008
2886.9150,97.9958
2887.8792,97.9872
2888.8435,97.9757
2889.8076,97.9629
2890.7720,97.9503
2891.7361,97.9389
2892.7004,97.9286
2893.6646,97.9188
2894.6289,97.9094
2895.5930,97.9011
2896.5574,97.8939
2897.5215,97.8864
2898.4858,97.8748
2899.4500,97.8547
2900.4143,97.8229
2901.3784,97.7811
2902.3428,97.7355
2903.3069,97.6943
2904.2712,97.6641
2905.2354,97.6472
2906.1997,97.6413
2907.1638,97.6424
2908.1282,97.6475
2909.0923,97.6563
2910.0566,97.6699
2911.0208,97.6896
2911.9851,97.7142
2912.9492,97.7406
2913.9136,97.7647
2914.8777,97.7823
2915.8420,97.7906
2916.8062,97.7871
2917.7705,97.7706
2918.7346,97.7406
2919.6990,97.6979
2920.6631,97.6453
2921.6274,97.5858
2922.5916,97.5218
2923.5559,97.4534
2924.5200,97.3779
2925.4844,97.2909
2926.4485,97.1889
2927.4128,97.0718
2928.3770,96.9438
2929.3413,96.8129
2930.3054,96.6883
2931.2698,96.5778
2932.2339,96.4861
2933.1982,96.415
2934.1624,96.3636
2935.1267,96.331
2936.0908,96.3159
2937.0552,96.3179
2938.0193,96.336
2938.9836,96.3688
2939.9478,96.4142
2940.9121,96.4695
2941.8762,96.5323
2942.8406,96.6006
2943.8047,96.673
2944.7690,96.7488
2945.7332,96.8269
2946.6975,96.9062
2947.6616,96.9853
2948.6260,97.063
2949.5901,97.1386
2950.5544,97.2117
2951.5186,97.2817
2952.4829,97.3477
2953.4470,97.4079
2954.4114,97.4607
2955.3755,97.5062
2956.3398,97.5464
2957.3040,97.585
2958.2683,97.6258
2959.2324,97.6709
2960.1968,97.7199
2961.1609,97.7708
2962.1252,97.8213
2963.0894,97.8698
2964.0537,97.9149
2965.0178,97.9549
2965.9822,97.9877
2966.9463,98.0121
2967.9106,98.0294
2968.8748,98.0446
2969.8391,98.0643
2970.8032,98.0945
2971.7676,98.1373
2972.7317,98.191
2973.6960,98.2522
2974.6602,98.3181
2975.6245,98.3874
2976.5886,98.4597
2977.5530,98.5331
2978.5171,98.604
2979.4814,98.6693
2980.4456,98.7289
2981.4099,98.7873
2982.3740,98.8519
2983.3384,98.9289
2984.3025,99.0195
2985.2668,99.118
2986.2310,99.2136
2987.1953,99.2948
2988.1594,99.3532
2989.1238,99.3865
2990.0879,99.3982
2991.0522,99.3958
2992.0164,99.3879
2992.9807,99.3817
2993.9448,99.3814
2994.9092,99.3883
2995.8733,99.4006
2996.8376,99.4156
2997.8018,99.4315
2998.7661,99.4482
2999.7302,99.4671
3000.6946,99.4889
3001.6587,99.5119
3002.6230,99.5239
3003.5872,99.5317
3004.5515,99.5343
3005.5156,99.5346
3006.4800,99.5377
3007.4441,99.5485
3008.4084,99.5689
3009.3726,99.5968
3010.3369,99.6272
3011.3010,99.6547
3012.2654,99.6754
3013.2295,99.6879
3014.1938,99.6925
3015.1580,99.6906
3016.1223,99.6841
3017.0864,99.6757
3018.0508,99.6684
3019.0149,99.6643
3019.9792,99.6637
3020.9434,99.6643
3021.9077,99.6626
3022.8718,99.6562
3023.8362,99.6463
3024.8003,99.6379
3025.7646,99.6372
3026.7288,99.6486
3027.6931,99.6713
3028.6572,99.6994
3029.6216,99.7235
3030.5857,99.7353
3031.5500,99.7305
3032.5142,99.7115
3033.4785,99.6853
3034.4426,99.6604
3035.4070,99.6429
3036.3711,99.635
3037.3354,99.6351
3038.2996,99.6391
3039.2639,99.6429
3040.2280,99.6431
3041.1924,99.6379
3042.1565,99.6271
3043.1208,99.6122
3044.0850,99.5957
3045.0493,99.581
3046.0134,99.5706
3046.9778,99.565
3047.9419,99.5618
3048.9063,99.5568
3049.8704,99.5464
3050.8347,99.5296
3051.7988,99.5089
3052.7632,99.489
3053.7273,99.4747
3054.6917,99.4678
3055.6558,99.4672
3056.6201,99.469
3057.5842,99.4692
3058.5486,99.4651
3059.5127,99.4565
3060.4771,99.445
3061.4412,99.4331
3062.4055,99.4227
3063.3696,99.4144
3064.3340,99.4069
3065.2981,99.3981
3066.2625,99.3864
3067.2266,99.3718
3068.1909,99.3561
3069.1550,99.3421
3070.1194,99.3317
3071.0835,99.3254
3072.0479,99.3222
3073.0120,99.3209
3073.9763,99.3212
3074.9404,99.3233
3075.9048,99.3275
3076.8689,99.3327
3077.8333,99.3367
3078.7974,99.3375
3079.7617,99.335
3080.7258,99.3307
3081.6902,99.3265
3082.6543,99.3233
3083.6187,99.3196
3084.5828,99.313
3085.5471,99.3014
3086.5112,99.2854
3087.4756,99.2681
3088.4397,99.2534
3089.4041,99.2449
3090.3682,99.244
3091.3325,99.2498
3092.2966,99.259
3093.2610,99.2671
3094.2251,99.2698
3095.1895,99.2646
3096.1536,99.2519
3097.1179,99.235
3098.0820,99.2183
3099.0464,99.2049
3100.0105,99.1944
3100.9749,99.1843
3101.9390,99.1713
3102.9033,99.1543
3103.8674,99.135
3104.8318,99.116
3105.7959,99.0989
3106.7603,99.0833
3107.7244,99.0671
3108.6887,99.0497
3109.6528,99.0327
3110.6172,99.0192
3111.5813,99.0117
3112.5457,99.01
3113.5098,99.0105
3114.4741,99.0089
3115.4382,99.0027
3116.4026,98.9924
3117.3667,98.9807
3118.3311,98.9692
3119.2952,98.9577
3120.2595,98.9442
3121.2236,98.927
3122.1880,98.9069
3123.1521,98.8866
3124.1165,98.8683
3125.0806,98.8523
3126.0449,98.8364
3127.0090,98.8182
3127.9734,98.7978
3128.9375,98.7788
3129.9019,98.7661
3130.8660,98.7631
3131.8303,98.7681
3132.7944,98.775
3133.7588,98.7762
3134.7229,98.7663
3135.6873,98.7453
3136.6514,98.7176
3137.6157,98.6901
3138.5798,98.6686
3139.5442,98.655
3140.5083,98.6475
3141.4727,98.6415
3142.4368,98.6325
3143.4011,98.6184
3144.3652,98.6008
3145.3296,98.5845
3146.2937,98.5746
3147.2581,98.5732
3148.2222,98.5779
3149.1865,98.5817
3150.1506,98.5771
3151.1150,98.5594
3152.0791,98.5291
3153.0435,98.4917
3154.0076,98.4546
3154.9719,98.4235
3155.9360,98.4007
3156.9004,98.3851
3157.8645,98.3733
3158.8289,98.362
3159.7930,98.3495
3160.7573,98.3362
3161.7214,98.3245
3162.6858,98.3168
3163.6499,98.3145
3164.6143,98.3161
3165.5784,98.3178
3166.5427,98.3149
3167.5068,98.3039
3168.4712,98.2844
3169.4353,98.1858
3170.3997,98.1586
3171.3638,98.1333
3172.3281,98.1111
3173.2922,98.0919
3174.2566,98.0748
3175.2207,98.0593
3176.1851,98.0447
3177.1492,98.0304
3178.1135,98.0157
3179.0776,98.0011
3180.0420,97.9877
3181.0061,97.9774
3181.9705,97.9706
3182.9346,97.9659
3183.8989,97.9604
3184.8630,97.9514
3185.8274,97.9384
3186.7915,97.9238
3187.7559,97.9106
3188.7200,97.9002
3189.6843,97.8909
3190.6484,97.8787
3191.6128,97.8604
3192.5769,97.8356
3193.5413,97.8071
3194.5054,97.7791
3195.4697,97.7547
3196.4338,97.7345
3197.3982,97.7174
3198.3623,97.7029
3199.3267,97.6915
3200.2908,97.6846
3201.2551,97.6816
3202.2192,97.6793
3203.1836,97.6722
3204.1477,97.656
3205.1121,97.6305
3206.0762,97.6008
3207.0405,97.5749
3208.0046,97.5598
3208.9690,97.5573
3209.9331,97.5633
3210.8975,97.5691
3211.8616,97.5665
3212.8259,97.5518
3213.7900,97.5276
3214.7544,97.5013
3215.7185,97.4818
3216.6829,97.4742
3217.6470,97.4777
3218.6113,97.4858
3219.5754,97.4892
3220.5398,97.48
3221.5039,97.4554
3222.4683,97.4185
3223.4324,97.3767
3224.3967,97.3391
3225.3608,97.3137
3226.3252,97.3056
3227.2893,97.3153
3228.2537,97.3389
3229.2178,97.3679
3230.1821,97.3917
3231.1462,97.4009
3232.1106,97.3899
3233.0747,97.3594
3234.0391,97.315
3235.0032,97.2654
3235.9675,97.2193
3236.9316,97.1827
3237.8960,97.1589
3238.8601,97.1478
3239.8245,97.1469
3240.7886,97.1515
3241.7529,97.1556
3242.7170,97.1537
3243.6814,97.1418
3244.6455,97.1195
3245.6099,97.0891
3246.5740,97.0557
3247.5383,97.0246
3248.5024,97.0001
3249.4668,96.9854
3250.4309,96.9815
3251.3953,96.9865
3252.3594,96.9947
3253.3237,96.9979
3254.2878,96.9881
3255.2522,96.9617
3256.2163,96.9219
3257.1807,96.8776
3258.1448,96.8394
3259.1091,96.8146
3260.0732,96.8048
3261.0376,96.8059
3262.0017,96.8103
3262.9661,96.811
3263.9302,96.8034
3264.8945,96.7866
3265.8586,96.7624
3266.8230,96.7348
3267.7871,96.7086
3268.7515,96.6887
3269.7156,96.6781
3270.6799,96.6771
3271.6440,96.6826
3272.6084,96.6884
3273.5725,96.6876
3274.5369,96.6758
3275.5010,96.6529
3276.4653,96.6235
3277.4294,96.5944
3278.3938,96.5713
3279.3579,96.5566
3280.3223,96.5484
3281.2864,96.5421
3282.2507,96.5328
3283.2148,96.5182
3284.1792,96.4987
3285.1433,96.4775
3286.1077,96.4578
3287.0718,96.4421
3288.0361,96.4311
3289.0002,96.4242
3289.9646,96.4196
3290.9287,96.415
3291.8931,96.4075
3292.8572,96.3945
3293.8215,96.3739
3294.7856,96.3459
3295.7500,96.313
3296.7141,96.2812
3297.6785,96.2577
3298.6426,96.2488
3299.6069,96.2567
3300.5710,96.2771
3301.5354,96.3006
3302.4995,96.3159
3303.4639,96.3153
3304.4280,96.2976
3305.3923,96.2684
3306.3564,96.2367
3307.3208,96.21
3308.2849,96.1912
3309.2493,96.1781
3310.2134,96.1667
3311.1777,96.1534
3312.1418,96.1366
3313.1062,96.116
3314.0703,96.0914
3315.0347,96.063
3315.9988,96.0326
3316.9631,96.005
3317.9272,95.9863
3318.8916,95.9814
3319.8557,95.9902
3320.8201,96.0067
3321.7842,96.0204
3322.7485,96.0214
3323.7126,96.0053
3324.6770,95.9751
3325.6411,95.9388
3326.6055,95.9056
3327.5696,95.8808
3328.5339,95.8655
3329.4980,95.8576
3330.4624,95.8549
3331.4265,95.8563
3332.3909,95.8618
3333.3550,95.8702
3334.3193,95.8782
3335.2834,95.8811
3336.2478,95.8759
3337.2119,95.8631
3338.1763,95.847
3339.1404,95.833
3340.1047,95.8254
3341.0688,95.8257
3342.0332,95.8331
3342.9973,95.8455
3343.9617,95.8593
3344.9258,95.8693
3345.8901,95.8683
3346.8542,95.8494
3347.8186,95.8099
3348.7827,95.7539
3349.7471,95.6927
3350.7112,95.6408
3351.6755,95.6096
3352.6396,95.6034
3353.6040,95.618
3354.5681,95.6434
3355.5325,95.6681
3356.4966,95.6824
3357.4609,95.6803
3358.4250,95.6601
3359.3894,95.6247
3360.3535,95.5815
3361.3179,95.5411
3362.2820,95.5144
3363.2463,95.5092
3364.2104,95.5269
3365.1748,95.5611
3366.1389,95.6
3367.1033,95.6307
3368.0674,95.6438
3369.0317,95.6371
3369.9958,95.6156
3370.9602,95.5889
3371.9243,95.567
3372.8887,95.5564
3373.8528,95.5573
3374.8171,95.5638
3375.7813,95.5667
3376.7456,95.5581
3377.7097,95.5351
3378.6741,95.5009
3379.6382,95.4629
3380.6025,95.4292
3381.5667,95.4053
3382.5310,95.3925
3383.4951,95.3879
3384.4595,95.3866
3385.4236,95.3847
3386.3879,95.3811
3387.3521,95.3784
3388.3164,95.3802
3389.2805,95.389
3390.2449,95.4031
3391.2090,95.4163
3392.1733,95.4202
3393.1375,95.409
3394.1018,95.3832
3395.0659,95.3494
3396.0303,95.317
3396.9944,95.294
3397.9587,95.2837
3398.9229,95.2839
3399.8872,95.2897
3400.8513,95.2967
3401.8157,95.3028
3402.7798,95.3077
3403.7441,95.3107
3404.7083,95.309
3405.6726,95.2978
3406.6367,95.2739
3407.6011,95.2389
3408.5652,95.2005
3409.5295,95.1704
3410.4937,95.1589
3411.4580,95.169
3412.4221,95.1946
3413.3865,95.2228
3414.3506,95.2398
3415.3149,95.237
3416.2791,95.2149
3417.2434,95.1806
3418.2075,95.1451
3419.1719,95.1185
3420.1360,95.1071
3421.1003,95.1131
3422.0645,95.1342
3423.0288,95.1653
3423.9929,95.1992
3424.9573,95.2279
3425.9214,95.2442
3426.8857,95.2438
3427.8499,95.2266
3428.8142,95.1976
3429.7783,95.1662
3430.7427,95.1429
3431.7068,95.1363
3432.6711,95.1493
3433.6353,95.1776
3434.5996,95.2115
3435.5637,95.2395
3436.5281,95.2531
3437.4922,95.2491
3438.4565,95.2294
3439.4207,95.1985
3440.3850,95.1616
3441.3491,95.125
3442.3135,95.0968
3443.2776,95.0869
3444.2419,95.1041
3445.2061,95.15
3446.1704,95.2145
3447.1345,95.2775
3448.0989,95.3182
3449.0630,95.3258
3450.0273,95.3037
3450.9915,95.2657
3451.9558,95.2288
3452.9199,95.2069
3453.8843,95.2065
3454.8484,95.2265
3455.8127,95.2612
3456.7769,95.3043
3457.7412,95.3502
3458.7053,95.3926
3459.6697,95.4241
3460.6338,95.4372
3461.5981,95.4283
3462.5623,95.4015
3463.5266,95.3692
3464.4907,95.3472
3465.4551,95.348
3466.4192,95.3752
3467.3835,95.4215
3468.3477,95.4724
3469.3120,95.5128
3470.2761,95.5331
3471.2405,95.5314
3472.2046,95.5127
3473.1689,95.4847
3474.1331,95.4551
3475.0974,95.4302
3476.0615,95.4159
3477.0259,95.418
3477.9900,95.4424
3478.9543,95.491
3479.9185,95.5579
3480.8828,95.6274
3481.8469,95.6797
3482.8113,95.7009
3483.7754,95.6898
3484.7397,95.6581
3485.7039,95.6234
3486.6682,95.6009
3487.6323,95.5976
3488.5967,95.6108
3489.5608,95.6323
3490.5251,95.6551
3491.4893,95.6776
3492.4536,95.7032
3493.4177,95.7349
3494.3821,95.7701
3495.3462,95.7993
3496.3105,95.8111
3497.2747,95.8014
3498.2390,95.7782
3499.2031,95.7606
3500.1675,95.7701
3501.1316,95.8174
3502.0959,95.8916
3503.0601,95.9633
3504.0244,96.0039
3504.9885,96.0031
3505.9529,95.971
3506.9170,95.9303
3507.8813,95.9048
3508.8455,95.9089
3509.8098,95.9423
3510.7739,95.9935
3511.7383,96.0486
3512.7024,96.0978
3513.6667,96.1359
3514.6309,96.1599
3515.5952,96.1675
3516.5593,96.1589
3517.5237,96.1393
3518.4878,96.1197
3519.4521,96.1145
3520.4163,96.1349
3521.3806,96.184
3522.3447,96.255
3523.3091,96.3355
3524.2732,96.4156
3525.2375,96.4912
3526.2017,96.5604
3527.1660,96.618
3528.1301,96.6551
3529.0945,96.6655
3530.0586,96.6531
3531.0229,96.6323
3531.9871,96.6215
3532.9514,96.6366
3533.9155,96.6848
3534.8799,96.7601
3535.8440,96.8442
3536.8083,96.915
3537.7725,96.9575
3538.7368,96.9704
3539.7009,96.9637
3540.6653,96.955
3541.6294,96.9671
3542.5938,97.0217
3543.5579,97.1269
3544.5222,97.2646
3545.4863,97.3964
3546.4507,97.488
3547.4148,97.5307
3548.3792,97.5387
3549.3433,97.5371
3550.3076,97.5531
3551.2717,97.6064
3552.2361,97.6986
3553.2002,97.8115
3554.1646,97.9195
3555.1287,98.0043
3556.0930,98.0633
3557.0571,98.1067
3558.0215,98.1474
3558.9856,98.1874
3559.9500,98.212
3560.9141,98.2006
3561.8784,98.1462
3562.8425,98.0736
3563.8069,98.0435
3564.7710,98.1249
3565.7354,98.329
3566.6995,98.5666
3567.6638,98.7248
3568.6279,98.776
3569.5923,98.7569
3570.5564,98.7019
3571.5208,98.6325
3572.4849,98.5731
3573.4492,98.5498
3574.4133,98.5786
3575.3777,98.6561
3576.3418,98.7642
3577.3062,98.8798
3578.2703,98.9806
3579.2346,99.0441
3580.1987,99.0486
3581.1631,98.9802
3582.1272,98.8447
3583.0916,98.6775
3584.0557,98.5484
3585.0200,98.5401
3585.9841,98.6871
3586.9485,98.9162
3587.9126,99.0959
3588.8770,99.1597
3589.8411,99.1259
3590.8054,99.0402
3591.7695,98.9482
3592.7339,98.8923
3593.6980,98.896
3594.6624,98.9484
3595.6265,99.017
3596.5908,99.0798
3597.5549,99.1393
3598.5193,99.2072
3599.4834,99.2828
3600.4478,99.3435
3601.4119,99.359
3602.3762,99.3137
3603.3403,99.2165
3604.3047,99.1001
3605.2688,99.0106
3606.2332,98.9862
3607.1973,99.0319
3608.1616,99.1161
3609.1257,99.2023
3610.0901,99.2752
3611.0542,99.3335
3612.0186,99.3706
3612.9829,99.3704
3613.9470,99.3224
3614.9114,99.2398
3615.8755,99.1655
3616.8398,99.1557
3617.8040,99.2418
3618.7683,99.3925
3619.7324,99.5286
3620.6968,99.5882
3621.6609,99.5526
3622.6252,99.4172
3623.5894,99.1845
3624.5537,98.8941
3625.5178,98.6525
3626.4822,98.6131
3627.4463,98.8574
3628.4106,99.2486
3629.3748,99.5391
3630.3391,99.6476
3631.3032,99.6429
3632.2676,99.5876
3633.2317,99.5128
3634.1960,99.4442
3635.1602,99.4066
3636.1245,99.4134
3637.0886,99.4623
3638.0530,99.5407
3639.0171,99.6314
3639.9814,99.7129
3640.9456,99.7563
3641.9099,99.7291
3642.8740,99.6092
3643.8384,99.4077
3644.8025,99.1978
3645.7668,99.1368
3646.7310,99.4269
3647.6953,100.095
3648.6594,100.722
3649.6238,100.835
3650.5879,100.54
3651.5522,100.161
3652.5164,99.8307
3653.4807,99.5694
3654.4448,99.4051
3655.4092,99.3802
3656.3733,99.491
3657.3376,99.6741
3658.3018,99.859
3659.2661,100.005
3660.2302,100.105
3661.1946,100.171
3662.1587,100.205
3663.1230,100.192
3664.0872,100.11
3665.0515,99.9585
3666.0156,99.7882
3666.9800,99.6953
3667.9441,99.7586
3668.9084,99.9364
3669.8726,100.064
3670.8369,100.024
3671.8010,99.8562
3672.7654,99.706
3673.7295,99.7302
3674.6938,99.9865
3675.6580,100.343
3676.6223,100.6
3677.5864,100.692
3678.5508,100.668
3679.5149,100.577
3680.4792,100.446
3681.4434,100.29
3682.4077,100.113
3683.3718,99.9068
3684.3362,99.6794
3685.3003,99.4798
3686.2646,99.4153
3687.2288,99.6047
3688.1931,100.046
3689.1572,100.52
3690.1216,100.775
3691.0857,100.779
3692.0500,100.644
3693.0142,100.46
3693.9785,100.263
3694.9426,100.067
3695.9070,99.8813
3696.8711,99.7212
3697.8354,99.615
3698.7996,99.6006
3699.7639,99.706
3700.7280,99.9145
3701.6924,100.15
3702.6565,100.315
3703.6208,100.349
3704.5850,100.245
3705.5493,100.034
3706.5134,99.7816
3707.4778,99.5896
3708.4419,99.584
3709.4063,99.8371
3710.3704,100.252
3711.3347,100.595
3712.2988,100.73
3713.2632,100.7
3714.2273,100.583
3715.1917,100.419
3716.1558,100.234
3717.1201,100.064
3718.0842,99.9595
3719.0486,99.9579
3720.0127,100.065
3720.9771,100.253
3721.9412,100.481
3722.9055,100.71
3723.8696,100.904
3724.8340,101.023
3725.7981,101.036
3726.7625,100.934
3727.7266,100.729
3728.6909,100.449
3729.6550,100.147
3730.6194,99.9136
3731.5835,99.8805
3732.5479,100.182
3733.5120,100.837
3734.4763,101.614
3735.4404,102.145
3736.4048,102.27
3737.3689,102.092
3738.3333,101.737
3739.2974,101.259
3740.2617,100.707
3741.2258,100.185
3742.1902,99.8583
3743.1543,99.8542
3744.1187,100.112
3745.0828,100.407
3746.0471,100.578
3747.0112,100.624
3747.9756,100.65
3748.9397,100.77
3749.9041,100.97
3750.8682,101.072
3751.8325,100.959
3752.7966,100.719
3753.7610,100.462
3754.7251,100.23
3755.6895,100.049
3756.6536,99.9628
3757.6179,99.9931
3758.5820,100.099
3759.5464,100.196
3760.5105,100.223
3761.4749,100.172
3762.4390,100.069
3763.4033,99.9517
3764.3674,99.8585
3765.3318,99.8132
3766.2959,99.8224
3767.2603,99.879
3768.2244,99.9675
3769.1887,100.064
3770.1528,100.139
3771.1172,100.164
3772.0813,100.124
3773.0457,100.017
3774.0098,99.8602
3774.9741,99.6921
3775.9382,99.5758
3776.9026,99.5726
3777.8667,99.6969
3778.8311,99.8925
3779.7952,100.072
3780.7595,100.182
3781.7236,100.218
3782.6880,100.205
3783.6521,100.168
3784.6165,100.123
3785.5806,100.074
3786.5449,100.025
3787.5090,99.9776
3788.4734,99.9348
3789.4375,99.8942
3790.4019,99.8531
3791.3660,99.8165
3792.3303,99.8017
3793.2944,99.8292
3794.2588,99.9034
3795.2229,99.9971
3796.1873,100.064
3797.1514,100.075
3798.1157,100.045
3799.0798,100.018
3800.0442,100.017
3801.0083,100.007
3801.9727,99.9345
3802.9368,99.7938
3803.9011,99.6329
3804.8652,99.5196
3805.8296,99.5144
3806.7937,99.6321
3807.7581,99.8187
3808.7222,99.982
3809.6865,100.046
3810.6506,99.9822
3811.6150,99.8181
3812.5791,99.6398
3813.5435,99.5546
3814.5076,99.6149
3815.4719,99.765
3816.4360,99.8922
3817.4004,99.9367
3818.3645,99.9251
3819.3289,99.9147
3820.2930,99.9273
3821.2573,99.942
3822.2214,99.9429
3823.1858,99.9374
3824.1499,99.9326
3825.1143,99.9296
3826.0784,99.9324
3827.0427,99.9485
3828.0068,99.9799
3828.9712,100.018
3829.9353,100.046
3830.8997,100.039
3831.8638,99.9771
3832.8281,99.8495
3833.7922,99.6742
3834.7566,99.5037
3835.7207,99.4126
3836.6851,99.457
3837.6492,99.6267
3838.6135,99.844
3839.5776,100.028
3840.5420,100.151
3841.5061,100.226
3842.4705,100.28
3843.4346,100.321
3844.3989,100.339
3845.3630,100.305
3846.3274,100.177
3847.2915,99.9202
3848.2559,99.5319
3849.2200,99.0795
3850.1843,98.7359
3851.1484,98.7599
3852.1128,99.2888
3853.0769,100.017
3854.0413,100.452
3855.0054,100.542
3855.9697,100.467
3856.9338,100.305
3857.8982,100.062
3858.8623,99.7663
3859.8267,99.4962
3860.7908,99.3557
3861.7551,99.4129
3862.7192,99.6323
3863.6836,99.8782
3864.6477,100.014
3865.6121,99.9935
3866.5762,99.8611
3867.5405,99.7054
3868.5046,99.6151
3869.4690,99.6391
3870.4331,99.761
3871.3975,99.9134
3872.3616,100.026
3873.3259,100.059
3874.2900,100.006
3875.2544,99.8844
3876.2185,99.7294
3877.1829,99.596
3878.1470,99.5426
3879.1113,99.5991
3880.0754,99.7382
3881.0398,99.8873
3882.0039,99.9794
3882.9683,99.9929
3883.9324,99.9441
3884.8967,99.8585
3885.8608,99.7526
3886.8252,99.637
3887.7893,99.5297
3888.7537,99.469
3889.7178,99.5079
3890.6821,99.6722
3891.6462,99.9111
3892.6106,100.115
3893.5747,100.195
3894.5391,100.128
3895.5032,99.9442
3896.4675,99.7071
3897.4316,99.4981
3898.3960,99.3832
3899.3601,99.3839
3900.3245,99.4777
3901.2886,99.6265
3902.2529,99.7949
3903.2170,99.9461
3904.1814,100.048
3905.1455,100.088
3906.1099,100.077
3907.0740,100.03
3908.0383,99.9625
3909.0024,99.8893
3909.9668,99.8224
3910.9309,99.7653
3911.8953,99.7141
3912.8594,99.6674
3913.8237,99.6367
3914.7878,99.6453
3915.7522,99.7101
3916.7163,99.8193
3917.6807,99.9305
3918.6448,99.9986
3919.6091,100.005
3920.5732,99.962
3921.5376,99.8975
3922.5017,99.8434
3923.4661,99.8171
3924.4302,99.8128
3925.3945,99.81
3926.3586,99.7914
3927.3230,99.7567
3928.2871,99.7249
3929.2515,99.7258
3930.2156,99.7798
3931.1799,99.8787
3932.1440,99.9865
3933.1084,100.065
3934.0725,100.091
3935.0369,100.064
3936.0010,99.9894
3936.9653,99.8826
3937.9294,99.7658
3938.8938,99.6675
3939.8579,99.6156
3940.8223,99.6248
3941.7864,99.6857
3942.7507,99.7675
3943.7148,99.8358
3944.6792,99.8722
3945.6433,99.8814
3946.6077,99.8836
3947.5718,99.8988
3948.5361,99.9316
3949.5002,99.9672
3950.4646,99.9829
3951.4287,99.9649
3952.3931,99.916
3953.3572,99.8518
3954.3215,99.7929
3955.2856,99.7556
3956.2500,99.747
3957.2141,99.7654
3958.1785,99.8044
3959.1426,99.8574
3960.1069,99.9175
3961.0710,99.9752
3962.0354,100.019
3962.9995,100.038
3963.9639,100.028
3964.9280,99.9928
3965.8923,99.941
3966.8564,99.8856
3967.8208,99.838
3968.7849,99.8063
3969.7493,99.7945
3970.7134,99.8036
3971.6777,99.8319
3972.6418,99.8737
3973.6062,99.9192
3974.5703,99.9553
3975.5347,99.9708
3976.4988,99.9612
3977.4631,99.9318
3978.4272,99.8944
3979.3916,99.8623
3980.3557,99.844
3981.3201,99.8403
3982.2842,99.845
3983.2485,99.8498
3984.2126,99.8495
3985.1770,99.845
3986.1411,99.8417
3987.1055,99.8453
3988.0696,99.8577
3989.0339,99.8756
3989.9980,99.892
3990.9624,99.8999
3991.9265,99.8975
3992.8909,99.8887
3993.8550,99.8815
3994.8193,99.8829
3995.7834,99.895
3996.7478,99.9132
3997.7119,99.9285
3998.6763,99.9318
3999.6404,99.9183
4000.6047,100.058

##### Extended Information
[Comments]
Sample name
Comment
User
Division
Company,HANKYONG

[Detailed Information]
Creation date,4/24/2024 3:50 PM

Data array type,Linear data array
Horizontal axis,Wavenumber [cm-1]
Vertical axis,%T
Start,649.893 cm-1
End,4000.6 cm-1
Data interval,0.964233 cm-1
Data points,3476    

[Measurement Information]
Model Name,FT/IR-4700typeA
Serial Number,D056761788

Accessory,ATR PRO ONE
Accessory S/N,C174761809
Incident angle,45 deg

Measurement Date,4/24/2024 3:48 PM

Light Source,Standard
Detector,TGS
Accumulation,32
Resolution,4 cm-1
Zero Filling,On
Apodization,Cosine
Gain,Auto (4)
Aperture,Auto (7.1 mm)
Scanning Speed,Auto (2 mm/sec)
Filter,Auto (30000 Hz)

