TITLE,
DATA TYPE,INFRARED SPECTRUM
ORIGIN,JASCO
OWNER,
DATE,24/04/24
TIME,15:33:25
SPECTROMETER/DATA SYSTEM,
LOCALE,1033
RESOLUTION,
DELTAX,0.964233
XUNITS,1/CM
YUNITS,TRANSMITTANCE
FIRSTX,  649.8934
LASTX, 4000.6047
NPOINTS,    3476
FIRSTY,    99.80063
MAXY,   103.79829
MINY,    77.14938
XYDATA
649.8934,99.8006
650.8576,99.894
651.8218,99.9918
652.7861,99.9405
653.7503,99.8141
654.7145,99.6361
655.6788,99.4444
656.6430,99.2848
657.6072,99.1843
658.5715,99.1401
659.5357,99.1287
660.4999,99.1264
661.4642,99.1258
662.4284,99.1363
663.3926,99.1721
664.3569,99.2411
665.3211,99.3397
666.2853,99.4471
667.2496,99.5155
668.2138,99.4916
669.1780,99.3937
670.1423,99.3166
671.1065,99.3195
672.0707,99.399
673.0350,99.5297
673.9992,99.6827
674.9634,99.827
675.9277,99.9335
676.8919,99.9871
677.8561,99.9937
678.8204,99.9729
679.7846,99.9468
680.7488,99.9308
681.7131,99.9326
682.6773,99.9535
683.6415,99.9903
684.6058,100.036
685.5700,100.082
686.5342,100.111
687.4985,100.108
688.4627,100.06
689.4269,99.9655
690.3912,99.8419
691.3554,99.7207
692.3196,99.6365
693.2839,99.6106
694.2481,99.6352
695.2123,99.6732
696.1766,99.6824
697.1408,99.6433
698.1050,99.5665
699.0693,99.4812
700.0335,99.4151
700.9977,99.3795
701.9620,99.3663
702.9262,99.3566
703.8904,99.3334
704.8547,99.2904
705.8189,99.2323
706.7831,99.169
707.7474,99.1098
708.7116,99.0597
709.6758,99.021
710.6401,98.9939
711.6043,98.9782
712.5685,98.9717
713.5328,98.9705
714.4970,98.9702
715.4612,98.9946
716.4255,98.989
717.3897,98.9868
718.3539,98.9934
719.3182,99.0108
720.2824,99.036
721.2466,99.0621
722.2109,99.0832
723.1751,99.0982
724.1393,99.1104
725.1036,99.1242
726.0678,99.1406
727.0320,99.1551
727.9963,99.1602
728.9605,99.1501
729.9247,99.1247
730.8890,99.0904
731.8532,99.0559
732.8174,99.0271
733.7817,99.0033
734.7459,98.9788
735.7101,98.9467
736.6744,98.9051
737.6386,98.8577
738.6028,98.8122
739.5671,98.8036
740.5313,98.846
741.4955,98.89
742.4598,98.9287
743.4240,98.9594
744.3882,98.9855
745.3525,99.0137
746.3167,99.0498
747.2809,99.0947
748.2452,99.1447
749.2094,99.1946
750.1736,99.2415
751.1379,99.2856
752.1021,99.3285
753.0663,99.3701
754.0306,99.4077
754.9948,99.4376
755.9590,99.4574
756.9233,99.468
757.8875,99.4731
758.8517,99.4771
759.8160,99.4832
760.7802,99.4928
761.7444,99.5055
762.7087,99.5209
763.6729,99.5383
764.6371,99.5577
765.6014,99.5789
766.5656,99.6021
767.5298,99.627
768.4941,99.6525
769.4583,99.6768
770.4225,99.6975
771.3868,99.7129
772.3510,99.7236
773.3152,99.7319
774.2795,99.7412
775.2437,99.7531
776.2079,99.7666
777.1722,99.7784
778.1364,99.7852
779.1006,99.7859
780.0649,99.783
781.0291,99.7814
781.9933,99.7873
782.9576,99.8057
783.9218,99.8394
784.8860,99.888
785.8503,99.9468
786.8145,100.007
787.7787,100.056
788.7430,100.083
789.7072,100.085
790.6714,100.063
791.6357,100.033
792.5999,100.008
793.5641,100.003
794.5284,100.022
795.4926,100.056
796.4568,100.096
797.4211,100.127
798.3853,100.143
799.3495,100.144
800.3138,100.134
801.2780,100.117
802.2422,100.096
803.2065,100.072
804.1707,100.047
805.1349,100.026
806.0992,100.014
807.0634,100.016
808.0276,100.034
808.9919,100.061
809.9561,100.088
810.9203,100.105
811.8846,100.112
812.8488,100.109
813.8130,100.103
814.7773,100.098
815.7415,100.094
816.7057,100.09
817.6700,100.087
818.6342,100.083
819.5984,100.079
820.5627,100.075
821.5269,100.07
822.4911,100.067
823.4554,100.068
824.4196,100.076
825.3839,100.091
826.3481,100.108
827.3123,100.12
828.2766,100.118
829.2408,100.102
830.2050,100.075
831.1693,100.048
832.1335,100.027
833.0977,100.02
834.0620,100.025
835.0262,100.041
835.9904,100.062
836.9547,100.083
837.9189,100.101
838.8831,100.115
839.8474,100.126
840.8116,100.137
841.7758,100.15
842.7401,100.167
843.7043,100.184
844.6685,100.2
845.6328,100.211
846.5970,100.215
847.5612,100.211
848.5255,100.197
849.4897,100.174
850.4539,100.145
851.4182,100.116
852.3824,100.094
853.3466,100.084
854.3109,100.084
855.2751,100.086
856.2393,100.083
857.2036,100.071
858.1678,100.055
859.1320,100.041
860.0963,100.033
861.0605,100.033
862.0247,100.082
862.9890,100.144
863.9532,100.192
864.9174,100.218
865.8817,100.217
866.8459,100.186
867.8101,100.128
868.7744,100.047
869.7386,99.9478
870.7028,99.8374
871.6671,99.7208
872.6313,99.6048
873.5955,99.5003
874.5598,99.4201
875.5240,99.375
876.4882,99.3674
877.4525,99.3884
878.4167,99.4198
879.3809,99.4424
880.3452,99.4429
881.3094,99.4178
882.2736,99.3721
883.2379,99.3138
884.2021,99.2495
885.1663,99.1826
886.1306,99.1141
887.0948,99.0431
888.0590,98.9684
889.0233,98.8881
889.9875,98.801
890.9517,98.7079
891.9160,98.6137
892.8802,98.5277
893.8444,98.4616
894.8087,98.4259
895.7729,98.4272
896.7371,98.4663
897.7014,98.5403
898.6656,98.6448
899.6298,98.7759
900.5941,98.9304
901.5583,99.1038
902.5225,99.2888
903.4868,99.4741
904.4510,99.647
905.4152,99.7968
906.3795,99.9181
907.3437,100.011
908.3079,100.081
909.2722,100.132
910.2364,100.168
911.2006,100.193
912.1649,100.206
913.1291,100.21
914.0933,100.179
915.0576,100.111
916.0218,100.039
916.9860,99.9638
917.9503,99.882
918.9145,99.7924
919.8787,99.6947
920.8430,99.5898
921.8072,99.48
922.7714,99.3677
923.7357,99.2553
924.6999,99.1439
925.6641,99.0332
926.6284,98.9216
927.5926,98.807
928.5568,98.6885
929.5211,98.5675
930.4853,98.4462
931.4495,98.3258
932.4138,98.2038
933.3780,98.0735
934.3422,97.927
935.3065,97.7589
936.2707,97.569
937.2349,97.3622
938.1992,97.1453
939.1634,96.9235
940.1276,96.6982
941.0919,96.4684
942.0561,96.2329
943.0203,95.9912
943.9846,95.7433
944.9488,95.4878
945.9130,95.2215
946.8773,94.9405
947.8415,94.6433
948.8057,94.3329
949.7700,94.0172
950.7342,93.7057
951.6984,93.4058
952.6627,93.1195
953.6269,92.8435
954.5911,92.5714
955.5554,92.2979
956.5196,92.0218
957.4838,91.7464
958.4481,91.4766
959.4123,91.2153
960.3765,90.9608
961.3408,90.7078
962.3050,90.451
963.2692,90.1882
964.2335,89.922
965.1977,89.6574
966.1619,89.3973
967.1262,89.1403
968.0904,88.8804
969.0546,88.6104
970.0189,88.3254
970.9831,88.024
971.9473,87.7072
972.9116,87.3759
973.8758,87.0289
974.8400,86.6637
975.8043,86.2778
976.7685,85.8718
977.7327,85.45
978.6970,85.0209
979.6612,84.5949
980.6254,84.1826
981.5897,83.793
982.5539,83.4329
983.5181,83.1065
984.4824,82.8162
985.4466,82.5621
986.4108,82.3424
987.3751,82.1539
988.3393,81.9921
989.3035,81.8525
990.2678,81.731
991.2320,81.6236
992.1962,81.5253
993.1605,81.4297
994.1247,81.3283
995.0889,81.2134
996.0532,81.0805
997.0174,80.931
997.9816,80.7723
998.9459,80.6153
999.9101,80.4701
1000.8743,80.3421
1001.8386,80.2306
1002.8028,80.1288
1003.7670,80.0277
1004.7313,79.9193
1005.6955,79.799
1006.6597,79.6665
1007.6240,79.5245
1008.5882,79.3771
1009.5524,79.2274
1010.5167,79.0767
1011.4809,78.9236
1012.4451,78.7651
1013.4094,78.5984
1014.3736,78.4227
1015.3378,78.2403
1016.3021,78.0562
1017.2663,77.8759
1018.2305,77.7041
1019.1948,77.544
1020.1590,77.4001
1021.1232,77.2797
1022.0875,77.1933
1023.0517,77.1497
1024.0160,77.1494
1024.9802,77.1793
1025.9445,77.2155
1026.9087,77.2328
1027.8729,77.2199
1028.8372,77.1879
1029.8014,77.1682
1030.7656,77.1987
1031.7299,77.3074
1032.6941,77.5023
1033.6583,77.7701
1034.6226,78.0849
1035.5868,78.4187
1036.5510,78.7493
1037.5153,79.0636
1038.4795,79.3553
1039.4437,79.6216
1040.4080,79.8616
1041.3722,80.0765
1042.3364,80.2699
1043.3007,80.4477
1044.2649,80.6167
1045.2291,80.7833
1046.1934,80.9526
1047.1576,81.128
1048.1218,81.3112
1049.0861,81.5026
1050.0503,81.7025
1051.0145,81.9126
1051.9788,82.1382
1052.9430,82.3872
1053.9072,82.666
1054.8715,82.9739
1055.8357,83.2993
1056.7999,83.6228
1057.7642,83.9277
1058.7284,84.2122
1059.6926,84.4949
1060.6569,84.8081
1061.6211,85.1806
1062.5853,85.6195
1063.5496,86.1014
1064.5138,86.5779
1065.4780,86.9963
1066.4423,87.3237
1067.4065,87.5624
1068.3707,87.7442
1069.3350,87.9112
1070.2992,88.0951
1071.2634,88.3068
1072.2277,88.539
1073.1919,88.7757
1074.1561,89.0028
1075.1204,89.2135
1076.0846,89.4073
1077.0488,89.5861
1078.0131,89.7491
1078.9773,89.8922
1079.9415,90.0102
1080.9058,90.0995
1081.8700,90.1609
1082.8342,90.199
1083.7985,90.2189
1084.7627,90.2232
1085.7269,90.2106
1086.6912,90.1772
1087.6554,90.1205
1088.6196,90.0429
1089.5839,89.9527
1090.5481,89.8619
1091.5123,89.7815
1092.4766,89.7187
1093.4408,89.6757
1094.4050,89.6515
1095.3693,89.6435
1096.3335,89.6484
1097.2977,89.6617
1098.2620,89.6774
1099.2262,89.689
1100.1904,89.6926
1101.1547,89.6887
1102.1189,89.6835
1103.0831,89.6863
1104.0474,89.7057
1105.0116,89.746
1105.9758,89.806
1106.9401,89.8808
1107.9043,89.9658
1108.8685,90.0598
1109.8328,90.1661
1110.7970,90.2901
1111.7612,90.4349
1112.7255,90.5989
1113.6897,90.774
1114.6539,90.9494
1115.6182,91.1148
1116.5824,91.2648
1117.5466,91.3997
1118.5109,91.5246
1119.4751,91.6465
1120.4393,91.7719
1121.4036,91.9063
1122.3678,92.054
1123.3320,92.2188
1124.2963,92.4028
1125.2605,92.6063
1126.2247,92.8268
1127.1890,93.0602
1128.1532,93.302
1129.1174,93.5493
1130.0817,93.8003
1131.0459,94.0527
1132.0101,94.3023
1132.9744,94.5416
1133.9386,94.7615
1134.9028,94.9534
1135.8671,95.1119
1136.8313,95.2348
1137.7955,95.3229
1138.7598,95.3774
1139.7240,95.3996
1140.6882,95.3902
1141.6525,95.3507
1142.6167,95.284
1143.5809,95.1945
1144.5452,95.0879
1145.5094,94.9703
1146.4736,94.8478
1147.4379,94.7255
1148.4021,94.6071
1149.3663,94.4951
1150.3306,94.3914
1151.2948,94.2982
1152.2590,94.2191
1153.2233,94.158
1154.1875,94.1186
1155.1517,94.1024
1156.1160,94.1095
1157.0802,94.1391
1158.0444,94.1915
1159.0087,94.2696
1159.9729,94.3783
1160.9371,94.5233
1161.9014,94.7091
1162.8656,94.9375
1163.8298,95.2066
1164.7941,95.5111
1165.7583,95.8428
1166.7225,96.1913
1167.6868,96.5457
1168.6510,96.8963
1169.6152,97.2353
1170.5795,97.5578
1171.5437,97.8608
1172.5079,98.1427
1173.4722,98.4017
1174.4364,98.6361
1175.4006,98.8449
1176.3649,99.0565
1177.3291,99.2398
1178.2933,99.3949
1179.2576,99.5221
1180.2218,99.6224
1181.1860,99.6974
1182.1503,99.7498
1183.1145,99.7829
1184.0787,99.8004
1185.0430,99.8055
1186.0072,99.7996
1186.9714,99.7821
1187.9357,99.7506
1188.8999,99.7023
1189.8641,99.6354
1190.8284,99.5499
1191.7926,99.4476
1192.7568,99.3305
1193.7211,99.2009
1194.6853,99.0614
1195.6495,98.915
1196.6138,98.7662
1197.5780,98.6198
1198.5422,98.4797
1199.5065,98.317
1200.4707,98.1963
1201.4349,98.0826
1202.3992,97.9761
1203.3634,97.8789
1204.3276,97.7938
1205.2919,97.7226
1206.2561,97.664
1207.2203,97.6141
1208.1846,97.5672
1209.1488,97.5183
1210.1130,97.4633
1211.0773,97.3997
1212.0415,97.3258
1213.0057,97.2407
1213.9700,97.1452
1214.9342,97.0415
1215.8984,96.9333
1216.8627,96.8243
1217.8269,96.7175
1218.7911,96.6147
1219.7554,96.5163
1220.7196,96.4221
1221.6838,96.3324
1222.6481,96.2472
1223.6123,96.1668
1224.5765,96.0911
1225.5408,96.0189
1226.5050,95.9486
1227.4692,95.8789
1228.4335,95.8092
1229.3977,95.7395
1230.3619,95.6703
1231.3262,95.6011
1232.2904,95.5309
1233.2546,95.4592
1234.2189,95.3879
1235.1831,95.3232
1236.1473,95.2738
1237.1116,95.2474
1238.0758,95.2459
1239.0400,95.2626
1240.0043,95.2846
1240.9685,95.2984
1241.9327,95.2979
1242.8970,95.288
1243.8612,95.2822
1244.8254,95.2957
1245.7897,95.3373
1246.7539,95.4046
1247.7181,95.486
1248.6824,95.5653
1249.6466,95.6287
1250.6108,95.6688
1251.5751,95.6861
1252.5393,95.6869
1253.5035,95.6803
1254.4678,95.6743
1255.4320,95.6736
1256.3962,95.6785
1257.3605,95.6861
1258.3247,95.6924
1259.2889,95.6948
1260.2532,95.6943
1261.2174,95.6944
1262.1816,95.6988
1263.1459,95.7089
1264.1101,95.7229
1265.0743,95.7374
1266.0386,95.7495
1267.0028,95.7595
1267.9670,95.7712
1268.9313,95.7903
1269.8955,95.8222
1270.8597,95.8691
1271.8240,95.9298
1272.7882,96
1273.7524,96.0744
1274.7167,96.1482
1275.6809,96.2184
1276.6451,96.2837
1277.6094,96.3439
1278.5736,96.3999
1279.5378,96.4531
1280.5021,96.505
1281.4663,96.5572
1282.4305,96.6102
1283.3948,96.6637
1284.3590,96.7163
1285.3232,96.7656
1286.2875,96.8086
1287.2517,96.8426
1288.2159,96.8657
1289.1802,96.8777
1290.1444,96.8792
1291.1086,96.8715
1292.0729,96.8551
1293.0371,96.8291
1294.0013,96.7917
1294.9656,96.741
1295.9298,96.6758
1296.8940,96.5963
1297.8583,96.5036
1298.8225,96.3993
1299.7867,96.2853
1300.7510,96.1636
1301.7152,96.0367
1302.6794,95.906
1303.6437,95.7716
1304.6079,95.6333
1305.5721,95.4907
1306.5364,95.3448
1307.5006,95.1975
1308.4648,95.0509
1309.4291,94.9064
1310.3933,94.7639
1311.3575,94.6238
1312.3218,94.488
1313.2860,94.3607
1314.2502,94.2474
1315.2145,94.1535
1316.1787,94.0825
1317.1429,94.0358
1318.1072,94.0125
1319.0714,94.0099
1320.0356,94.0239
1320.9999,94.0503
1321.9641,94.0855
1322.9283,94.1273
1323.8926,94.1739
1324.8568,94.2234
1325.8210,94.2737
1326.7853,94.3226
1327.7495,94.3697
1328.7137,94.4168
1329.6780,94.4679
1330.6422,94.527
1331.6064,94.5956
1332.5707,94.6723
1333.5349,94.7543
1334.4991,94.8403
1335.4634,94.9329
1336.4276,95.038
1337.3918,95.1603
1338.3561,95.2964
1339.3203,95.4335
1340.2845,95.5579
1341.2488,95.6639
1342.2130,95.7544
1343.1772,95.8341
1344.1415,95.9057
1345.1057,95.9688
1346.0699,96.0207
1347.0342,96.0583
1347.9984,96.0799
1348.9626,96.0856
1349.9269,96.0777
1350.8911,96.0592
1351.8553,96.0328
1352.8196,96.0007
1353.7838,95.9641
1354.7480,95.9236
1355.7123,95.879
1356.6765,95.8299
1357.6407,95.777
1358.6050,95.7225
1359.5692,95.6699
1360.5334,95.6226
1361.4977,95.5801
1362.4619,95.5392
1363.4261,95.4994
1364.3904,95.4644
1365.3546,95.4379
1366.3188,95.4203
1367.2831,95.4109
1368.2473,95.4094
1369.2115,95.4173
1370.1758,95.4386
1371.1400,95.4802
1372.1042,95.5494
1373.0685,95.6475
1374.0327,95.7638
1374.9969,95.8796
1375.9612,95.9819
1376.9254,96.0712
1377.8896,96.1575
1378.8539,96.2496
1379.8181,96.349
1380.7823,96.4482
1381.7466,96.5357
1382.7108,96.6034
1383.6750,96.651
1384.6393,96.6845
1385.6035,96.7119
1386.5677,96.7384
1387.5320,96.7686
1388.4962,96.8097
1389.4604,96.8676
1390.4247,96.9401
1391.3889,97.017
1392.3531,97.0833
1393.3174,97.1196
1394.2816,97.1059
1395.2458,97.0354
1396.2101,96.9266
1397.1743,96.8148
1398.1385,96.7287
1399.1028,96.6761
1400.0670,96.6499
1401.0313,96.6384
1401.9955,96.6324
1402.9597,96.6252
1403.9240,96.6098
1404.8882,96.5774
1405.8524,96.5214
1406.8167,96.4418
1407.7809,96.3435
1408.7451,96.2301
1409.7094,96.1023
1410.6736,95.9607
1411.6378,95.8093
1412.6021,95.6551
1413.5663,95.5036
1414.5305,95.356
1415.4948,95.2124
1416.4590,95.0758
1417.4232,94.9496
1418.3875,94.8364
1419.3517,94.7442
1420.3159,94.6867
1421.2802,94.6698
1422.2444,94.6858
1423.2086,94.7233
1424.1729,94.774
1425.1371,94.8348
1426.1013,94.9075
1427.0656,94.9997
1428.0298,95.12
1428.9940,95.269
1429.9583,95.4314
1430.9225,95.5818
1431.8867,95.7026
1432.8510,95.7954
1433.8152,95.8816
1434.7794,95.9897
1435.7437,96.1316
1436.7079,96.2841
1437.6721,96.4119
1438.6364,96.503
1439.6006,96.5649
1440.5648,96.6036
1441.5291,96.6207
1442.4933,96.6184
1443.4575,96.6014
1444.4218,96.5758
1445.3860,96.5475
1446.3502,96.5203
1447.3145,96.4949
1448.2787,96.4715
1449.2429,96.451
1450.2072,96.4341
1451.1714,96.4168
1452.1356,96.3927
1453.0999,96.3631
1454.0641,96.349
1455.0283,96.391
1455.9926,96.5095
1456.9568,96.6354
1457.9210,96.6798
1458.8853,96.6781
1459.8495,96.6935
1460.8137,96.7332
1461.7780,96.7914
1462.7422,96.8827
1463.7064,97.0319
1464.6707,97.2397
1465.6349,97.4678
1466.5991,97.671
1467.5634,97.8309
1468.5276,97.9576
1469.4918,98.0829
1470.4561,98.2575
1471.4203,98.5291
1472.3845,98.8878
1473.3488,99.2384
1474.3130,99.4939
1475.2772,99.6619
1476.2415,99.7807
1477.2057,99.8712
1478.1699,99.9523
1479.1342,100.021
1480.0984,100.074
1481.0626,100.105
1482.0269,100.11
1482.9911,100.084
1483.9553,100.031
1484.9196,99.9605
1485.8838,99.886
1486.8480,99.8223
1487.8123,99.7674
1488.7765,99.6899
1489.7407,99.5625
1490.7050,99.4048
1491.6692,99.2514
1492.6334,99.1092
1493.5977,98.967
1494.5619,98.817
1495.5261,98.6581
1496.4904,98.4865
1497.4546,98.2958
1498.4188,98.0962
1499.3831,97.9124
1500.3473,97.7524
1501.3115,97.6005
1502.2758,97.4404
1503.2400,97.2768
1504.2042,97.1492
1505.1685,97.1241
1506.1327,97.2198
1507.0969,97.2923
1508.0612,97.2128
1509.0254,97.088
1509.9896,97.0165
1510.9539,96.9918
1511.9181,96.9894
1512.8823,97.0055
1513.8466,97.0523
1514.8108,97.1399
1515.7750,97.2608
1516.7393,97.3919
1517.7035,97.5151
1518.6677,97.6351
1519.6320,97.7714
1520.5962,97.932
1521.5604,98.0951
1522.5247,98.2274
1523.4889,98.3124
1524.4531,98.3547
1525.4174,98.3662
1526.3816,98.3571
1527.3458,98.3334
1528.3101,98.2976
1529.2743,98.2516
1530.2385,98.2002
1531.2028,98.1516
1532.1670,98.1083
1533.1312,98.059
1534.0955,97.9875
1535.0597,97.8888
1536.0239,97.7711
1536.9882,97.6584
1537.9524,97.6038
1538.9166,97.6843
1539.8809,97.9086
1540.8451,98.0867
1541.8093,98.0342
1542.7736,97.8487
1543.7378,97.6726
1544.7020,97.5412
1545.6663,97.4427
1546.6305,97.3627
1547.5947,97.2918
1548.5590,97.2252
1549.5232,97.1616
1550.4874,97.101
1551.4517,97.0413
1552.4159,96.9771
1553.3801,96.9018
1554.3444,96.8161
1555.3086,96.7412
1556.2728,96.7277
1557.2371,96.8202
1558.2013,96.9319
1559.1655,96.8818
1560.1298,96.7269
1561.0940,96.6181
1562.0582,96.5669
1563.0225,96.527
1563.9867,96.4696
1564.9509,96.392
1565.9152,96.3067
1566.8794,96.2274
1567.8436,96.1541
1568.8079,96.0697
1569.7721,95.9604
1570.7363,95.8326
1571.7006,95.6999
1572.6648,95.5684
1573.6290,95.4411
1574.5933,95.3214
1575.5575,95.2031
1576.5217,95.0699
1577.4860,94.9225
1578.4502,94.7785
1579.4144,94.6394
1580.3787,94.4908
1581.3429,94.3229
1582.3071,94.1387
1583.2714,93.949
1584.2356,93.7641
1585.1998,93.5876
1586.1641,93.418
1587.1283,93.2542
1588.0925,93.0987
1589.0568,92.9572
1590.0210,92.8354
1590.9852,92.7359
1591.9495,92.6591
1592.9137,92.6043
1593.8779,92.5693
1594.8422,92.5506
1595.8064,92.5441
1596.7706,92.5467
1597.7349,92.558
1598.6991,92.5787
1599.6633,92.6088
1600.6276,92.6459
1601.5918,92.6853
1602.5560,92.7221
1603.5203,92.7539
1604.4845,92.7819
1605.4487,92.8095
1606.4130,92.8401
1607.3772,92.8735
1608.3414,92.9042
1609.3057,92.9228
1610.2699,92.9213
1611.2341,92.8977
1612.1984,92.8565
1613.1626,92.8105
1614.1268,92.7817
1615.0911,92.7891
1616.0553,92.8253
1617.0195,92.8576
1617.9838,92.8673
1618.9480,92.862
1619.9122,92.8529
1620.8765,92.8477
1621.8407,92.8518
1622.8049,92.863
1623.7692,92.8689
1624.7334,92.8583
1625.6976,92.8326
1626.6619,92.8008
1627.6261,92.7694
1628.5903,92.7376
1629.5546,92.6989
1630.5188,92.6452
1631.4830,92.5752
1632.4473,92.5034
1633.4115,92.4648
1634.3757,92.4958
1635.3400,92.5819
1636.3042,92.6468
1637.2684,92.6528
1638.2327,92.6331
1639.1969,92.6156
1640.1611,92.5994
1641.1254,92.5741
1642.0896,92.5355
1643.0538,92.4957
1644.0181,92.4869
1644.9823,92.5465
1645.9465,92.6704
1646.9108,92.785
1647.8750,92.8204
1648.8392,92.7768
1649.8035,92.6982
1650.7677,92.6526
1651.7319,92.7307
1652.6962,92.9652
1653.6604,93.2153
1654.6246,93.3543
1655.5889,93.434
1656.5531,93.5065
1657.5173,93.5729
1658.4816,93.6317
1659.4458,93.6989
1660.4100,93.7997
1661.3743,93.9432
1662.3385,94.1049
1663.3027,94.2456
1664.2670,94.3466
1665.2312,94.4176
1666.1954,94.4864
1667.1597,94.591
1668.1239,94.7625
1669.0881,94.9895
1670.0524,95.2085
1671.0166,95.3624
1671.9808,95.4536
1672.9451,95.5228
1673.9093,95.6093
1674.8735,95.7313
1675.8378,95.8801
1676.8020,96.0293
1677.7662,96.1544
1678.7305,96.2425
1679.6947,96.2972
1680.6589,96.345
1681.6232,96.438
1682.5874,96.6246
1683.5516,96.8772
1684.5159,97.091
1685.4801,97.2231
1686.4443,97.3183
1687.4086,97.4135
1688.3728,97.5127
1689.3370,97.6039
1690.3013,97.674
1691.2655,97.7163
1692.2297,97.737
1693.1940,97.7555
1694.1582,97.7987
1695.1224,97.887
1696.0867,98.018
1697.0509,98.1608
1698.0151,98.2761
1698.9794,98.3509
1699.9436,98.408
1700.9078,98.4771
1701.8721,98.5662
1702.8363,98.6643
1703.8005,98.7565
1704.7648,98.8331
1705.7290,98.8879
1706.6932,98.9173
1707.6575,98.9226
1708.6217,98.9107
1709.5859,98.8878
1710.5502,98.857
1711.5144,98.8201
1712.4786,98.7825
1713.4429,98.7571
1714.4071,98.7633
1715.3713,98.8102
1716.3356,98.8654
1717.2998,98.8719
1718.2640,98.827
1719.2283,98.7788
1720.1925,98.7529
1721.1567,98.7421
1722.1210,98.7319
1723.0852,98.7139
1724.0494,98.687
1725.0137,98.6547
1725.9779,98.622
1726.9421,98.5913
1727.9064,98.5609
1728.8706,98.5272
1729.8348,98.4921
1730.7991,98.4694
1731.7633,98.481
1732.7275,98.536
1733.6918,98.6113
1734.6560,98.6785
1735.6202,98.7344
1736.5845,98.7867
1737.5487,98.8395
1738.5129,98.8963
1739.4772,98.9611
1740.4414,99.0319
1741.4056,99.0997
1742.3699,99.1565
1743.3341,99.2009
1744.2983,99.2365
1745.2626,99.2684
1746.2268,99.3026
1747.1910,99.3457
1748.1553,99.3989
1749.1195,99.4522
1750.0837,99.4913
1751.0480,99.5145
1752.0122,99.5328
1752.9764,99.5554
1753.9407,99.5847
1754.9049,99.619
1755.8691,99.6552
1756.8334,99.6881
1757.7976,99.7136
1758.7618,99.7325
1759.7261,99.7507
1760.6903,99.7734
1761.6545,99.7993
1762.6188,99.8213
1763.5830,99.8325
1764.5472,99.8314
1765.5115,99.8216
1766.4757,99.8098
1767.4399,99.8051
1768.4042,99.8165
1769.3684,99.85
1770.3326,99.9033
1771.2969,99.9598
1772.2611,99.9953
1773.2253,99.9999
1774.1896,99.9852
1775.1538,99.9662
1776.1180,99.9495
1777.0823,99.9363
1778.0465,99.9274
1779.0107,99.9223
1779.9750,99.9172
1780.9392,99.907
1781.9034,99.8908
1782.8677,99.8875
1783.8319,99.8923
1784.7961,99.8995
1785.7604,99.9042
1786.7246,99.9005
1787.6888,99.8866
1788.6531,99.8692
1789.6173,99.8645
1790.5815,99.8882
1791.5458,99.9386
1792.5100,99.9914
1793.4742,100.024
1794.4385,100.033
1795.4027,100.029
1796.3669,100.018
1797.3312,100.008
1798.2954,100.007
1799.2596,100.017
1800.2239,100.035
1801.1881,100.053
1802.1523,100.065
1803.1166,100.069
1804.0808,100.068
1805.0450,100.062
1806.0093,100.055
1806.9735,100.051
1807.9377,100.054
1808.9020,100.068
1809.8662,100.088
1810.8304,100.108
1811.7947,100.119
1812.7589,100.121
1813.7231,100.116
1814.6874,100.109
1815.6516,100.105
1816.6158,100.105
1817.5801,100.109
1818.5443,100.111
1819.5085,100.108
1820.4728,100.099
1821.4370,100.087
1822.4012,100.079
1823.3655,100.077
1824.3297,100.082
1825.2939,100.09
1826.2582,100.103
1827.2224,100.122
1828.1866,100.147
1829.1509,100.172
1830.1151,100.188
1831.0793,100.192
1832.0436,100.187
1833.0078,100.181
1833.9720,100.178
1834.9363,100.18
1835.9005,100.186
1836.8647,100.19
1837.8290,100.184
1838.7932,100.164
1839.7574,100.134
1840.7217,100.104
1841.6859,100.087
1842.6501,100.097
1843.6144,100.132
1844.5786,100.174
1845.5428,100.207
1846.5071,100.226
1847.4713,100.235
1848.4355,100.237
1849.3998,100.236
1850.3640,100.234
1851.3282,100.232
1852.2925,100.231
1853.2567,100.23
1854.2209,100.23
1855.1852,100.229
1856.1494,100.229
1857.1136,100.228
1858.0779,100.226
1859.0421,100.223
1860.0063,100.22
1860.9706,100.217
1861.9348,100.214
1862.8990,100.21
1863.8633,100.206
1864.8275,100.207
1865.7917,100.219
1866.7560,100.244
1867.7202,100.277
1868.6844,100.303
1869.6487,100.313
1870.6129,100.309
1871.5771,100.302
1872.5414,100.296
1873.5056,100.292
1874.4698,100.289
1875.4341,100.289
1876.3983,100.29
1877.3625,100.291
1878.3268,100.292
1879.2910,100.294
1880.2552,100.298
1881.2195,100.303
1882.1837,100.308
1883.1479,100.308
1884.1122,100.304
1885.0764,100.298
1886.0406,100.293
1887.0049,100.295
1887.9691,100.307
1888.9333,100.323
1889.8976,100.338
1890.8618,100.347
1891.8260,100.349
1892.7903,100.349
1893.7545,100.349
1894.7188,100.353
1895.6830,100.357
1896.6472,100.361
1897.6115,100.363
1898.5757,100.363
1899.5399,100.363
1900.5042,100.364
1901.4684,100.368
1902.4326,100.373
1903.3969,100.376
1904.3611,100.376
1905.3253,100.375
1906.2896,100.377
1907.2538,100.383
1908.2180,100.394
1909.1823,100.407
1910.1465,100.417
1911.1107,100.42
1912.0750,100.414
1913.0392,100.402
1914.0034,100.389
1914.9677,100.379
1915.9319,100.377
1916.8961,100.382
1917.8604,100.391
1918.8246,100.399
1919.7888,100.409
1920.7531,100.421
1921.7173,100.436
1922.6815,100.452
1923.6458,100.463
1924.6100,100.464
1925.5742,100.457
1926.5385,100.446
1927.5027,100.435
1928.4669,100.428
1929.4312,100.428
1930.3954,100.432
1931.3596,100.437
1932.3239,100.441
1933.2881,100.444
1934.2523,100.445
1935.2166,100.444
1936.1808,100.441
1937.1450,100.436
1938.1093,100.429
1939.0735,100.424
1940.0377,100.426
1941.0020,100.436
1941.9662,100.451
1942.9304,100.465
1943.8947,100.471
1944.8589,100.469
1945.8231,100.462
1946.7874,100.453
1947.7516,100.444
1948.7158,100.438
1949.6801,100.435
1950.6443,100.433
1951.6085,100.432
1952.5728,100.433
1953.5370,100.435
1954.5012,100.436
1955.4655,100.436
1956.4297,100.434
1957.3939,100.432
1958.3582,100.43
1959.3224,100.431
1960.2866,100.432
1961.2509,100.432
1962.2151,100.432
1963.1793,100.432
1964.1436,100.434
1965.1078,100.44
1966.0720,100.446
1967.0363,100.451
1968.0005,100.451
1968.9647,100.447
1969.9290,100.442
1970.8932,100.44
1971.8574,100.442
1972.8217,100.447
1973.7859,100.451
1974.7501,100.453
1975.7144,100.451
1976.6786,100.447
1977.6428,100.444
1978.6071,100.442
1979.5713,100.441
1980.5355,100.44
1981.4998,100.438
1982.4640,100.437
1983.4282,100.438
1984.3925,100.441
1985.3567,100.446
1986.3209,100.449
1987.2852,100.45
1988.2494,100.448
1989.2136,100.445
1990.1779,100.443
1991.1421,100.444
1992.1063,100.447
1993.0706,100.45
1994.0348,100.453
1994.9990,100.454
1995.9633,100.454
1996.9275,100.453
1997.8917,100.453
1998.8560,100.453
1999.8202,100.452
2000.7844,100.45
2001.7487,100.447
2002.7129,100.444
2003.6771,100.442
2004.6414,100.441
2005.6056,100.441
2006.5698,100.44
2007.5341,100.438
2008.4983,100.433
2009.4625,100.427
2010.4268,100.42
2011.3910,100.414
2012.3552,100.412
2013.3195,100.415
2014.2837,100.421
2015.2479,100.43
2016.2122,100.439
2017.1764,100.443
2018.1406,100.442
2019.1049,100.435
2020.0691,100.425
2021.0333,100.415
2021.9976,100.409
2022.9618,100.407
2023.9260,100.409
2024.8903,100.413
2025.8545,100.416
2026.8187,100.416
2027.7830,100.412
2028.7472,100.405
2029.7114,100.399
2030.6757,100.395
2031.6399,100.394
2032.6041,100.395
2033.5684,100.399
2034.5326,100.402
2035.4968,100.403
2036.4611,100.402
2037.4253,100.4
2038.3895,100.397
2039.3538,100.395
2040.3180,100.395
2041.2822,100.397
2042.2465,100.401
2043.2107,100.404
2044.1749,100.406
2045.1392,100.406
2046.1034,100.404
2047.0676,100.403
2048.0320,100.401
2048.9961,100.399
2049.9604,100.398
2050.9246,100.396
2051.8889,100.395
2052.8530,100.394
2053.8174,100.392
2054.7815,100.39
2055.7458,100.388
2056.7100,100.387
2057.6743,100.388
2058.6384,100.39
2059.6028,100.393
2060.5669,100.396
2061.5313,100.399
2062.4954,100.402
2063.4597,100.403
2064.4238,100.404
2065.3882,100.403
2066.3523,100.4
2067.3167,100.396
2068.2808,100.392
2069.2451,100.388
2070.2092,100.387
2071.1736,100.387
2072.1377,100.39
2073.1021,100.393
2074.0662,100.396
2075.0305,100.398
2075.9946,100.399
2076.9590,100.399
2077.9231,100.398
2078.8875,100.395
2079.8516,100.392
2080.8159,100.389
2081.7800,100.388
2082.7444,100.392
2083.7085,100.399
2084.6729,100.408
2085.6370,100.417
2086.6013,100.423
2087.5654,100.425
2088.5298,100.424
2089.4939,100.42
2090.4583,100.416
2091.4224,100.413
2092.3867,100.412
2093.3508,100.412
2094.3152,100.412
2095.2793,100.412
2096.2437,100.413
2097.2078,100.412
2098.1721,100.411
2099.1362,100.41
2100.1006,100.41
2101.0647,100.412
2102.0291,100.415
2102.9932,100.421
2103.9575,100.425
2104.9216,100.426
2105.8860,100.425
2106.8501,100.422
2107.8145,100.42
2108.7786,100.421
2109.7429,100.423
2110.7070,100.427
2111.6714,100.429
2112.6355,100.43
2113.5999,100.43
2114.5640,100.428
2115.5283,100.426
2116.4924,100.423
2117.4568,100.421
2118.4209,100.42
2119.3853,100.42
2120.3494,100.423
2121.3137,100.427
2122.2778,100.43
2123.2422,100.432
2124.2063,100.433
2125.1707,100.432
2126.1348,100.432
2127.0991,100.433
2128.0632,100.434
2129.0276,100.434
2129.9917,100.433
2130.9561,100.43
2131.9202,100.427
2132.8845,100.428
2133.8486,100.432
2134.8130,100.44
2135.7771,100.45
2136.7415,100.459
2137.7056,100.463
2138.6699,100.462
2139.6340,100.457
2140.5984,100.451
2141.5625,100.448
2142.5269,100.448
2143.4910,100.45
2144.4553,100.453
2145.4194,100.456
2146.3838,100.457
2147.3479,100.459
2148.3123,100.462
2149.2764,100.467
2150.2407,100.473
2151.2048,100.479
2152.1692,100.483
2153.1333,100.484
2154.0977,100.484
2155.0618,100.484
2156.0261,100.486
2156.9902,100.489
2157.9546,100.494
2158.9187,100.499
2159.8831,100.505
2160.8472,100.51
2161.8115,100.515
2162.7756,100.518
2163.7400,100.52
2164.7041,100.521
2165.6685,100.522
2166.6326,100.524
2167.5969,100.527
2168.5610,100.531
2169.5254,100.534
2170.4895,100.537
2171.4539,100.539
2172.4180,100.541
2173.3823,100.544
2174.3464,100.548
2175.3108,100.553
2176.2749,100.558
2177.2393,100.562
2178.2034,100.565
2179.1677,100.567
2180.1318,100.571
2181.0962,100.577
2182.0603,100.585
2183.0247,100.594
2183.9888,100.602
2184.9531,100.607
2185.9172,100.608
2186.8816,100.607
2187.8457,100.603
2188.8101,100.601
2189.7742,100.603
2190.7385,100.609
2191.7026,100.618
2192.6670,100.628
2193.6311,100.636
2194.5955,100.641
2195.5596,100.643
2196.5239,100.642
2197.4880,100.642
2198.4524,100.642
2199.4165,100.643
2200.3809,100.644
2201.3450,100.646
2202.3093,100.648
2203.2734,100.651
2204.2378,100.653
2205.2019,100.654
2206.1663,100.654
2207.1304,100.653
2208.0947,100.652
2209.0588,100.654
2210.0232,100.658
2210.9873,100.664
2211.9517,100.67
2212.9158,100.675
2213.8801,100.676
2214.8442,100.676
2215.8086,100.675
2216.7727,100.676
2217.7371,100.68
2218.7012,100.688
2219.6655,100.697
2220.6296,100.705
2221.5940,100.709
2222.5581,100.707
2223.5225,100.702
2224.4866,100.696
2225.4509,100.69
2226.4150,100.688
2227.3794,100.689
2228.3435,100.692
2229.3079,100.695
2230.2720,100.697
2231.2363,100.698
2232.2004,100.7
2233.1648,100.702
2234.1289,100.706
2235.0933,100.71
2236.0574,100.712
2237.0217,100.711
2237.9858,100.708
2238.9502,100.703
2239.9143,100.698
2240.8787,100.694
2241.8428,100.692
2242.8071,100.691
2243.7712,100.69
2244.7356,100.689
2245.6997,100.687
2246.6641,100.685
2247.6282,100.682
2248.5925,100.679
2249.5566,100.675
2250.5210,100.671
2251.4851,100.666
2252.4495,100.66
2253.4136,100.654
2254.3779,100.648
2255.3420,100.642
2256.3064,100.637
2257.2705,100.631
2258.2349,100.626
2259.1990,100.622
2260.1633,100.618
2261.1274,100.614
2262.0918,100.612
2263.0559,100.609
2264.0203,100.607
2264.9844,100.604
2265.9487,100.601
2266.9128,100.597
2267.8772,100.592
2268.8413,100.588
2269.8057,100.584
2270.7698,100.58
2271.7341,100.577
2272.6982,100.574
2273.6626,100.574
2274.6267,100.577
2275.5911,100.585
2276.5552,100.597
2277.5195,100.61
2278.4836,100.625
2279.4480,100.637
2280.4121,100.646
2281.3765,100.647
2282.3406,100.64
2283.3049,100.622
2284.2690,100.595
2285.2334,100.56
2286.1975,100.521
2287.1619,100.481
2288.1260,100.44
2289.0903,100.4
2290.0544,100.359
2291.0188,100.316
2291.9829,100.274
2292.9473,100.234
2293.9114,100.198
2294.8757,100.165
2295.8398,100.132
2296.8042,100.097
2297.7683,100.059
2298.7327,100.02
2299.6968,99.9818
2300.6611,99.9476
2301.6252,99.9156
2302.5896,99.8805
2303.5537,99.8363
2304.5181,99.779
2305.4822,99.7093
2306.4465,99.6328
2307.4106,99.5576
2308.3750,99.4913
2309.3391,99.4379
2310.3035,99.397
2311.2676,99.3645
2312.2319,99.3343
2313.1960,99.3005
2314.1604,99.2589
2315.1245,99.2083
2316.0889,99.1517
2317.0530,99.0957
2318.0173,99.0481
2318.9814,99.0141
2319.9458,98.9921
2320.9099,98.9731
2321.8743,98.9447
2322.8384,98.8992
2323.8027,98.8406
2324.7668,98.7839
2325.7312,98.7479
2326.6953,98.7464
2327.6597,98.7814
2328.6238,98.841
2329.5881,98.9028
2330.5522,98.9441
2331.5166,98.9521
2332.4807,98.9302
2333.4451,98.8947
2334.4092,98.8657
2335.3735,98.8574
2336.3376,98.8735
2337.3020,98.9061
2338.2661,98.9424
2339.2305,98.9728
2340.1946,98.9971
2341.1589,99.0215
2342.1230,99.0477
2343.0874,99.0638
2344.0515,99.0511
2345.0159,99.0031
2345.9800,98.9312
2346.9443,98.8526
2347.9084,98.7807
2348.8728,98.7259
2349.8369,98.701
2350.8013,98.7252
2351.7654,98.8248
2352.7297,99.0257
2353.6938,99.3332
2354.6582,99.7154
2355.6223,100.116
2356.5867,100.488
2357.5508,100.812
2358.5151,101.073
2359.4792,101.252
2360.4436,101.328
2361.4077,101.295
2362.3721,101.164
2363.3362,100.959
2364.3005,100.71
2365.2646,100.448
2366.2290,100.198
2367.1931,99.9715
2368.1575,99.7719
2369.1216,99.6035
2370.0859,99.4732
2371.0500,99.3885
2372.0144,99.3539
2372.9785,99.3681
2373.9429,99.4245
2374.9070,99.513
2375.8713,99.6228
2376.8354,99.744
2377.7998,99.8689
2378.7639,99.9921
2379.7283,100.111
2380.6924,100.224
2381.6567,100.331
2382.6208,100.431
2383.5852,100.524
2384.5493,100.607
2385.5137,100.677
2386.4778,100.733
2387.4421,100.775
2388.4063,100.804
2389.3706,100.822
2390.3347,100.832
2391.2991,100.837
2392.2632,100.841
2393.2275,100.844
2394.1917,100.85
2395.1560,100.859
2396.1201,100.869
2397.0845,100.879
2398.0486,100.885
2399.0129,100.886
2399.9771,100.882
2400.9414,100.876
2401.9055,100.872
2402.8699,100.871
2403.8340,100.875
2404.7983,100.881
2405.7625,100.889
2406.7268,100.895
2407.6909,100.899
2408.6553,100.901
2409.6194,100.903
2410.5837,100.902
2411.5479,100.901
2412.5122,100.897
2413.4763,100.893
2414.4407,100.89
2415.4048,100.887
2416.3691,100.886
2417.3333,100.886
2418.2976,100.888
2419.2617,100.89
2420.2261,100.893
2421.1902,100.894
2422.1545,100.894
2423.1187,100.891
2424.0830,100.886
2425.0471,100.881
2426.0115,100.879
2426.9756,100.879
2427.9399,100.88
2428.9041,100.881
2429.8684,100.88
2430.8325,100.876
2431.7969,100.87
2432.7610,100.866
2433.7253,100.866
2434.6895,100.868
2435.6538,100.872
2436.6179,100.875
2437.5823,100.876
2438.5464,100.875
2439.5107,100.873
2440.4749,100.871
2441.4392,100.871
2442.4033,100.873
2443.3677,100.874
2444.3318,100.876
2445.2961,100.877
2446.2603,100.877
2447.2246,100.878
2448.1887,100.879
2449.1531,100.881
2450.1172,100.884
2451.0815,100.888
2452.0457,100.892
2453.0100,100.894
2453.9741,100.893
2454.9385,100.89
2455.9026,100.884
2456.8669,100.878
2457.8311,100.874
2458.7954,100.871
2459.7595,100.87
2460.7239,100.87
2461.6880,100.871
2462.6523,100.872
2463.6165,100.874
2464.5808,100.875
2465.5449,100.876
2466.5093,100.876
2467.4734,100.876
2468.4377,100.875
2469.4019,100.874
2470.3662,100.873
2471.3303,100.872
2472.2947,100.871
2473.2588,100.869
2474.2231,100.868
2475.1873,100.869
2476.1516,100.872
2477.1157,100.877
2478.0801,100.883
2479.0442,100.887
2480.0085,100.889
2480.9727,100.888
2481.9370,100.887
2482.9011,100.886
2483.8655,100.885
2484.8296,100.886
2485.7939,100.886
2486.7581,100.887
2487.7224,100.887
2488.6865,100.888
2489.6509,100.888
2490.6150,100.887
2491.5793,100.884
2492.5435,100.88
2493.5078,100.874
2494.4719,100.869
2495.4363,100.866
2496.4004,100.865
2497.3647,100.865
2498.3289,100.865
2499.2932,100.864
2500.2573,100.864
2501.2217,100.864
2502.1858,100.866
2503.1501,100.867
2504.1143,100.867
2505.0786,100.864
2506.0427,100.86
2507.0071,100.855
2507.9712,100.852
2508.9355,100.85
2509.8997,100.849
2510.8640,100.848
2511.8281,100.845
2512.7925,100.842
2513.7566,100.839
2514.7209,100.836
2515.6851,100.835
2516.6494,100.835
2517.6135,100.837
2518.5779,100.841
2519.5420,100.848
2520.5063,100.858
2521.4705,100.868
2522.4348,100.874
2523.3989,100.874
2524.3633,100.867
2525.3274,100.856
2526.2917,100.848
2527.2559,100.845
2528.2202,100.849
2529.1843,100.859
2530.1487,100.872
2531.1128,100.882
2532.0771,100.888
2533.0413,100.89
2534.0056,100.888
2534.9697,100.884
2535.9341,100.88
2536.8982,100.877
2537.8625,100.875
2538.8267,100.875
2539.7910,100.876
2540.7551,100.879
2541.7195,100.883
2542.6836,100.889
2543.6479,100.894
2544.6121,100.898
2545.5764,100.9
2546.5405,100.9
2547.5049,100.898
2548.4690,100.894
2549.4333,100.89
2550.3975,100.885
2551.3618,100.881
2552.3259,100.877
2553.2903,100.873
2554.2544,100.87
2555.2188,100.87
2556.1829,100.872
2557.1472,100.875
2558.1113,100.878
2559.0757,100.88
2560.0398,100.881
2561.0042,100.88
2561.9683,100.879
2562.9326,100.877
2563.8967,100.876
2564.8611,100.875
2565.8252,100.875
2566.7896,100.875
2567.7537,100.876
2568.7180,100.879
2569.6821,100.881
2570.6465,100.884
2571.6106,100.886
2572.5750,100.887
2573.5391,100.888
2574.5034,100.887
2575.4675,100.886
2576.4319,100.884
2577.3960,100.881
2578.3604,100.879
2579.3245,100.877
2580.2888,100.876
2581.2529,100.874
2582.2173,100.871
2583.1814,100.868
2584.1458,100.864
2585.1099,100.859
2586.0742,100.856
2587.0383,100.853
2588.0027,100.853
2588.9668,100.855
2589.9312,100.86
2590.8953,100.866
2591.8596,100.872
2592.8237,100.876
2593.7881,100.876
2594.7522,100.872
2595.7166,100.865
2596.6807,100.858
2597.6450,100.852
2598.6091,100.85
2599.5735,100.851
2600.5376,100.854
2601.5020,100.857
2602.4661,100.859
2603.4304,100.859
2604.3945,100.855
2605.3589,100.849
2606.3230,100.84
2607.2874,100.832
2608.2515,100.825
2609.2158,100.821
2610.1799,100.82
2611.1443,100.821
2612.1084,100.823
2613.0728,100.823
2614.0369,100.819
2615.0012,100.813
2615.9653,100.806
2616.9297,100.801
2617.8938,100.799
2618.8582,100.801
2619.8223,100.803
2620.7866,100.804
2621.7507,100.801
2622.7151,100.794
2623.6792,100.785
2624.6436,100.775
2625.6077,100.767
2626.5720,100.762
2627.5361,100.76
2628.5005,100.76
2629.4646,100.762
2630.4290,100.763
2631.3931,100.761
2632.3574,100.756
2633.3215,100.749
2634.2859,100.741
2635.2500,100.735
2636.2144,100.73
2637.1785,100.726
2638.1428,100.721
2639.1069,100.716
2640.0713,100.71
2641.0354,100.705
2641.9998,100.702
2642.9639,100.701
2643.9282,100.7
2644.8923,100.699
2645.8567,100.697
2646.8208,100.694
2647.7852,100.691
2648.7493,100.688
2649.7136,100.683
2650.6777,100.677
2651.6421,100.668
2652.6062,100.659
2653.5706,100.65
2654.5347,100.644
2655.4990,100.641
2656.4631,100.64
2657.4275,100.639
2658.3916,100.637
2659.3560,100.632
2660.3201,100.627
2661.2844,100.62
2662.2485,100.614
2663.2129,100.608
2664.1770,100.603
2665.1414,100.599
2666.1055,100.596
2667.0698,100.594
2668.0339,100.592
2668.9983,100.588
2669.9624,100.582
2670.9268,100.574
2671.8909,100.561
2672.8552,100.546
2673.8193,100.531
2674.7837,100.518
2675.7478,100.51
2676.7122,100.506
2677.6763,100.505
2678.6406,100.506
2679.6047,100.508
2680.5691,100.508
2681.5332,100.506
2682.4976,100.5
2683.4617,100.491
2684.4260,100.479
2685.3901,100.465
2686.3545,100.453
2687.3186,100.444
2688.2830,100.44
2689.2471,100.44
2690.2114,100.441
2691.1755,100.441
2692.1399,100.438
2693.1040,100.431
2694.0684,100.422
2695.0325,100.412
2695.9968,100.402
2696.9609,100.394
2697.9253,100.387
2698.8894,100.381
2699.8538,100.376
2700.8179,100.369
2701.7822,100.361
2702.7463,100.353
2703.7107,100.345
2704.6748,100.338
2705.6392,100.333
2706.6033,100.329
2707.5676,100.322
2708.5317,100.314
2709.4961,100.304
2710.4602,100.295
2711.4246,100.288
2712.3887,100.284
2713.3530,100.283
2714.3171,100.283
2715.2815,100.283
2716.2456,100.283
2717.2100,100.283
2718.1741,100.282
2719.1384,100.279
2720.1025,100.276
2721.0669,100.27
2722.0310,100.26
2722.9954,100.248
2723.9595,100.232
2724.9238,100.215
2725.8879,100.199
2726.8523,100.187
2727.8164,100.18
2728.7808,100.178
2729.7449,100.178
2730.7092,100.178
2731.6733,100.176
2732.6377,100.172
2733.6018,100.167
2734.5662,100.163
2735.5303,100.162
2736.4946,100.162
2737.4587,100.161
2738.4231,100.158
2739.3872,100.153
2740.3516,100.145
2741.3157,100.138
2742.2800,100.131
2743.2441,100.127
2744.2085,100.125
2745.1726,100.125
2746.1370,100.125
2747.1011,100.122
2748.0654,100.118
2749.0295,100.111
2749.9939,100.105
2750.9580,100.1
2751.9224,100.098
2752.8865,100.098
2753.8508,100.097
2754.8149,100.095
2755.7793,100.09
2756.7434,100.082
2757.7078,100.075
2758.6719,100.07
2759.6362,100.067
2760.6003,100.065
2761.5647,100.064
2762.5288,100.06
2763.4932,100.053
2764.4573,100.043
2765.4216,100.034
2766.3857,100.028
2767.3501,100.027
2768.3142,100.029
2769.2786,100.031
2770.2427,100.029
2771.2070,100.02
2772.1711,100.003
2773.1355,99.9802
2774.0996,99.9569
2775.0640,99.9369
2776.0281,99.9227
2776.9924,99.9143
2777.9565,99.9102
2778.9209,99.9079
2779.8850,99.9058
2780.8494,99.9033
2781.8135,99.9009
2782.7778,99.8995
2783.7419,99.8993
2784.7063,99.8991
2785.6704,99.8964
2786.6348,99.8888
2787.5989,99.8747
2788.5632,99.8548
2789.5273,99.8317
2790.4917,99.809
2791.4558,99.79
2792.4202,99.7762
2793.3843,99.7675
2794.3486,99.7624
2795.3127,99.7588
2796.2771,99.7547
2797.2412,99.7485
2798.2056,99.7374
2799.1697,99.7164
2800.1340,99.6913
2801.0981,99.6636
2802.0625,99.6361
2803.0266,99.6118
2803.9910,99.5923
2804.9551,99.5769
2805.9194,99.5629
2806.8835,99.5465
2807.8479,99.5253
2808.8120,99.4989
2809.7764,99.4694
2810.7405,99.4401
2811.7048,99.4133
2812.6689,99.3897
2813.6333,99.3679
2814.5974,99.3458
2815.5618,99.322
2816.5259,99.2965
2817.4902,99.2706
2818.4543,99.2449
2819.4187,99.2192
2820.3828,99.1922
2821.3472,99.1626
2822.3113,99.1303
2823.2756,99.097
2824.2397,99.0646
2825.2041,99.0338
2826.1682,99.0033
2827.1326,98.9702
2828.0967,98.9321
2829.0610,98.8889
2830.0251,98.8432
2830.9895,98.7986
2831.9536,98.7585
2832.9180,98.7242
2833.8821,98.6949
2834.8464,98.6691
2835.8105,98.6451
2836.7749,98.6219
2837.7390,98.5992
2838.7034,98.577
2839.6675,98.5561
2840.6318,98.5383
2841.5959,98.5257
2842.5603,98.5202
2843.5244,98.5229
2844.4888,98.5342
2845.4529,98.5547
2846.4172,98.5851
2847.3813,98.6259
2848.3457,98.6759
2849.3098,98.7307
2850.2742,98.7837
2851.2383,98.8279
2852.2026,98.8581
2853.1667,98.8725
2854.1311,98.8716
2855.0952,98.8571
2856.0596,98.8309
2857.0237,98.7953
2857.9880,98.7538
2858.9521,98.7106
2859.9165,98.67
2860.8806,98.6344
2861.8450,98.6036
2862.8091,98.5755
2863.7734,98.5479
2864.7375,98.5198
2865.7019,98.4922
2866.6660,98.4669
2867.6304,98.4453
2868.5945,98.427
2869.5588,98.41
2870.5229,98.3917
2871.4873,98.3701
2872.4514,98.3454
2873.4158,98.3205
2874.3799,98.3
2875.3442,98.2885
2876.3083,98.2888
2877.2727,98.3006
2878.2368,98.3212
2879.2012,98.3461
2880.1653,98.3713
2881.1296,98.3937
2882.0938,98.4119
2883.0581,98.4253
2884.0222,98.434
2884.9866,98.4382
2885.9507,98.4388
2886.9150,98.4372
2887.8792,98.4358
2888.8435,98.437
2889.8076,98.442
2890.7720,98.4501
2891.7361,98.4587
2892.7004,98.4656
2893.6646,98.4719
2894.6289,98.4841
2895.5930,98.5119
2896.5574,98.5628
2897.5215,98.6354
2898.4858,98.7171
2899.4500,98.7873
2900.4143,98.8261
2901.3784,98.8245
2902.3428,98.7888
2903.3069,98.7369
2904.2712,98.6894
2905.2354,98.6613
2906.1997,98.6578
2907.1638,98.676
2908.1282,98.7082
2909.0923,98.7462
2910.0566,98.7829
2911.0208,98.8138
2911.9851,98.8372
2912.9492,98.8549
2913.9136,98.8712
2914.8777,98.8913
2915.8420,98.9186
2916.8062,98.9533
2917.7705,98.992
2918.7346,99.0302
2919.6990,99.0635
2920.6631,99.0897
2921.6274,99.1081
2922.5916,99.1191
2923.5559,99.1226
2924.5200,99.1176
2925.4844,99.1023
2926.4485,99.0747
2927.4128,99.0339
2928.3770,98.9808
2929.3413,98.9193
2930.3054,98.8548
2931.2698,98.7926
2932.2339,98.7367
2933.1982,98.6884
2934.1624,98.6474
2935.1267,98.6129
2936.0908,98.5846
2937.0552,98.5632
2938.0193,98.5497
2938.9836,98.5448
2939.9478,98.5486
2940.9121,98.56
2941.8762,98.5778
2942.8406,98.6007
2943.8047,98.6278
2944.7690,98.6593
2945.7332,98.6963
2946.6975,98.7402
2947.6616,98.7917
2948.6260,98.85
2949.5901,98.9126
2950.5544,98.9764
2951.5186,99.0395
2952.4829,99.1019
2953.4470,99.1656
2954.4114,99.2323
2955.3755,99.3019
2956.3398,99.3709
2957.3040,99.4336
2958.2683,99.4846
2959.2324,99.5212
2960.1968,99.5456
2961.1609,99.5633
2962.1252,99.5811
2963.0894,99.6039
2964.0537,99.6336
2965.0178,99.6687
2965.9822,99.7062
2966.9463,99.7432
2967.9106,99.7779
2968.8748,99.8093
2969.8391,99.8366
2970.8032,99.8586
2971.7676,99.8742
2972.7317,99.8831
2973.6960,99.887
2974.6602,99.8889
2975.6245,99.8922
2976.5886,99.8993
2977.5530,99.9107
2978.5171,99.9255
2979.4814,99.9424
2980.4456,99.9612
2981.4099,99.9842
2982.3740,100.016
2983.3384,100.061
2984.3025,100.12
2985.2668,100.187
2986.2310,100.246
2987.1953,100.279
2988.1594,100.27
2989.1238,100.215
2990.0879,100.125
2991.0522,100.021
2992.0164,99.9235
2992.9807,99.8462
2993.9448,99.7893
2994.9092,99.7445
2995.8733,99.7009
2996.8376,99.6517
2997.8018,99.596
2998.7661,99.5369
2999.7302,99.4771
3000.6946,99.417
3001.6587,99.3543
3002.6230,99.2861
3003.5872,99.2116
3004.5515,99.1321
3005.5156,99.0511
3006.4800,98.9723
3007.4441,98.8983
3008.4084,98.8295
3009.3726,98.7647
3010.3369,98.7012
3011.3010,98.6363
3012.2654,98.5682
3013.2295,98.4964
3014.1938,98.4214
3015.1580,98.3446
3016.1223,98.2677
3017.0864,98.1921
3018.0508,98.1193
3019.0149,98.0503
3019.9792,97.9846
3020.9434,97.9208
3021.9077,97.8567
3022.8718,97.7912
3023.8362,97.7254
3024.8003,97.663
3025.7646,97.6085
3026.7288,97.5649
3027.6931,97.5311
3028.6572,97.5023
3029.6216,97.4715
3030.5857,97.4324
3031.5500,97.3823
3032.5142,97.323
3033.4785,97.2596
3034.4426,97.1977
3035.4070,97.1414
3036.3711,97.0922
3037.3354,97.0493
3038.2996,97.0105
3039.2639,96.9732
3040.2280,96.9351
3041.1924,96.8955
3042.1565,96.8548
3043.1208,96.8145
3044.0850,96.776
3045.0493,96.7399
3046.0134,96.7061
3046.9778,96.6734
3047.9419,96.641
3048.9063,96.6086
3049.8704,96.5761
3050.8347,96.5436
3051.7988,96.5104
3052.7632,96.4755
3053.7273,96.4386
3054.6917,96.4007
3055.6558,96.3639
3056.6201,96.3305
3057.5842,96.3011
3058.5486,96.2749
3059.5127,96.2504
3060.4771,96.2269
3061.4412,96.2055
3062.4055,96.1882
3063.3696,96.1752
3064.3340,96.1637
3065.2981,96.148
3066.2625,96.1222
3067.2266,96.084
3068.1909,96.0361
3069.1550,95.9851
3070.1194,95.9384
3071.0835,95.901
3072.0479,95.8737
3073.0120,95.8546
3073.9763,95.8399
3074.9404,95.8264
3075.9048,95.8117
3076.8689,95.7948
3077.8333,95.7751
3078.7974,95.7534
3079.7617,95.731
3080.7258,95.7094
3081.6902,95.6896
3082.6543,95.6714
3083.6187,95.6532
3084.5828,95.6328
3085.5471,95.608
3086.5112,95.5776
3087.4756,95.5415
3088.4397,95.5018
3089.4041,95.4626
3090.3682,95.4296
3091.3325,95.4074
3092.2966,95.3975
3093.2610,95.3964
3094.2251,95.3962
3095.1895,95.3888
3096.1536,95.3694
3097.1179,95.3394
3098.0820,95.3043
3099.0464,95.27
3100.0105,95.2394
3100.9749,95.2117
3101.9390,95.1845
3102.9033,95.1566
3103.8674,95.1284
3104.8318,95.1013
3105.7959,95.0755
3106.7603,95.0491
3107.7244,95.0202
3108.6887,94.9878
3109.6528,94.9536
3110.6172,94.9205
3111.5813,94.8908
3112.5457,94.8644
3113.5098,94.8395
3114.4741,94.8142
3115.4382,94.7881
3116.4026,94.7626
3117.3667,94.7391
3118.3311,94.7179
3119.2952,94.6969
3120.2595,94.6731
3121.2236,94.644
3122.1880,94.6093
3123.1521,94.5706
3124.1165,94.5302
3125.0806,94.4896
3126.0449,94.4492
3127.0090,94.4095
3127.9734,94.3721
3128.9375,94.3392
3129.9019,94.3132
3130.8660,94.294
3131.8303,94.2783
3132.7944,94.2603
3133.7588,94.2346
3134.7229,94.1988
3135.6873,94.1554
3136.6514,94.11
3137.6157,94.0682
3138.5798,94.0336
3139.5442,94.0054
3140.5083,93.98
3141.4727,93.953
3142.4368,93.9211
3143.4011,93.884
3144.3652,93.8441
3145.3296,93.8049
3146.2937,93.7693
3147.2581,93.7383
3148.2222,93.7104
3149.1865,93.6827
3150.1506,93.6523
3151.1150,93.6176
3152.0791,93.5786
3153.0435,93.5365
3154.0076,93.493
3154.9719,93.4494
3155.9360,93.4062
3156.9004,93.3632
3157.8645,93.3199
3158.8289,93.2755
3159.7930,93.2309
3160.7573,93.1884
3161.7214,93.1521
3162.6858,93.1257
3163.6499,93.1104
3164.6143,93.1031
3165.5784,93.0967
3166.5427,93.0835
3167.5068,93.0579
3168.4712,93.0193
3169.4353,92.897
3170.3997,92.8475
3171.3638,92.8021
3172.3281,92.7644
3173.2922,92.735
3174.2566,92.7124
3175.2207,92.6929
3176.1851,92.6717
3177.1492,92.644
3178.1135,92.6075
3179.0776,92.5636
3180.0420,92.5172
3181.0061,92.4738
3181.9705,92.4365
3182.9346,92.4051
3183.8989,92.3769
3184.8630,92.3498
3185.8274,92.3239
3186.7915,92.3006
3187.7559,92.2799
3188.7200,92.2584
3189.6843,92.2305
3190.6484,92.1916
3191.6128,92.1418
3192.5769,92.087
3193.5413,92.0353
3194.5054,91.9932
3195.4697,91.9618
3196.4338,91.9378
3197.3982,91.9165
3198.3623,91.8953
3199.3267,91.8744
3200.2908,91.855
3201.2551,91.8368
3202.2192,91.8165
3203.1836,91.7896
3204.1477,91.7535
3205.1121,91.7097
3206.0762,91.6634
3207.0405,91.6207
3208.0046,91.5862
3208.9690,91.56
3209.9331,91.5388
3210.8975,91.5177
3211.8616,91.4932
3212.8259,91.4649
3213.7900,91.4352
3214.7544,91.4079
3215.7185,91.3857
3216.6829,91.3685
3217.6470,91.3532
3218.6113,91.3354
3219.5754,91.3115
3220.5398,91.2809
3221.5039,91.2454
3222.4683,91.2082
3223.4324,91.1718
3224.3967,91.1377
3225.3608,91.1067
3226.3252,91.0801
3227.2893,91.0592
3228.2537,91.0439
3229.2178,91.0319
3230.1821,91.0185
3231.1462,90.9992
3232.1106,90.9723
3233.0747,90.94
3234.0391,90.9067
3235.0032,90.876
3235.9675,90.8483
3236.9316,90.8211
3237.8960,90.7915
3238.8601,90.7586
3239.8245,90.7243
3240.7886,90.6919
3241.7529,90.6637
3242.7170,90.6398
3243.6814,90.619
3244.6455,90.5995
3245.6099,90.5801
3246.5740,90.5602
3247.5383,90.5384
3248.5024,90.5135
3249.4668,90.4852
3250.4309,90.4557
3251.3953,90.4287
3252.3594,90.4073
3253.3237,90.3911
3254.2878,90.3757
3255.2522,90.3553
3256.2163,90.3259
3257.1807,90.2886
3258.1448,90.2483
3259.1091,90.2111
3260.0732,90.1805
3261.0376,90.1557
3262.0017,90.1328
3262.9661,90.1083
3263.9302,90.0809
3264.8945,90.0529
3265.8586,90.0283
3266.8230,90.0103
3267.7871,90.0002
3268.7515,89.997
3269.7156,89.9981
3270.6799,90.0004
3271.6440,90.0008
3272.6084,89.9963
3273.5725,89.9848
3274.5369,89.9658
3275.5010,89.9418
3276.4653,89.9178
3277.4294,89.8998
3278.3938,89.8924
3279.3579,89.8964
3280.3223,89.9078
3281.2864,89.9199
3282.2507,89.9259
3283.2148,89.9223
3284.1792,89.9104
3285.1433,89.8948
3286.1077,89.8807
3287.0718,89.8711
3288.0361,89.866
3289.0002,89.8634
3289.9646,89.8618
3290.9287,89.8609
3291.8931,89.8619
3292.8572,89.8648
3293.8215,89.8684
3294.7856,89.8704
3295.7500,89.8694
3296.7141,89.867
3297.6785,89.8675
3298.6426,89.875
3299.6069,89.8908
3300.5710,89.9117
3301.5354,89.9321
3302.4995,89.9472
3303.4639,89.9557
3304.4280,89.9601
3305.3923,89.964
3306.3564,89.9688
3307.3208,89.9734
3308.2849,89.9753
3309.2493,89.9736
3310.2134,89.9699
3311.1777,89.9672
3312.1418,89.9668
3313.1062,89.9667
3314.0703,89.963
3315.0347,89.9528
3315.9988,89.9367
3316.9631,89.9193
3317.9272,89.9066
3318.8916,89.9034
3319.8557,89.9109
3320.8201,89.927
3321.7842,89.9473
3322.7485,89.9667
3323.7126,89.9806
3324.6770,89.9859
3325.6411,89.982
3326.6055,89.9706
3327.5696,89.9556
3328.5339,89.9414
3329.4980,89.9314
3330.4624,89.9271
3331.4265,89.929
3332.3909,89.937
3333.3550,89.9513
3334.3193,89.9724
3335.2834,89.9999
3336.2478,90.0322
3337.2119,90.0664
3338.1763,90.0982
3339.1404,90.1235
3340.1047,90.1393
3341.0688,90.1457
3342.0332,90.1465
3342.9973,90.1485
3343.9617,90.159
3344.9258,90.1819
3345.8901,90.2156
3346.8542,90.2535
3347.8186,90.2873
3348.7827,90.3106
3349.7471,90.3219
3350.7112,90.3239
3351.6755,90.3217
3352.6396,90.3204
3353.6040,90.3245
3354.5681,90.3369
3355.5325,90.3593
3356.4966,90.3907
3357.4609,90.4272
3358.4250,90.4626
3359.3894,90.4912
3360.3535,90.5105
3361.3179,90.5218
3362.2820,90.5292
3363.2463,90.5379
3364.2104,90.5518
3365.1748,90.5731
3366.1389,90.6026
3367.1033,90.6396
3368.0674,90.6817
3369.0317,90.7248
3369.9958,90.7647
3370.9602,90.7996
3371.9243,90.8303
3372.8887,90.8604
3373.8528,90.8926
3374.8171,90.9265
3375.7813,90.9578
3376.7456,90.981
3377.7097,90.9931
3378.6741,90.9958
3379.6382,90.9954
3380.6025,90.9999
3381.5667,91.0155
3382.5310,91.0445
3383.4951,91.0843
3384.4595,91.1281
3385.4236,91.1671
3386.3879,91.1938
3387.3521,91.2055
3388.3164,91.2059
3389.2805,91.2041
3390.2449,91.2103
3391.2090,91.2301
3392.1733,91.2618
3393.1375,91.297
3394.1018,91.3265
3395.0659,91.3465
3396.0303,91.3598
3396.9944,91.374
3397.9587,91.396
3398.9229,91.4277
3399.8872,91.466
3400.8513,91.5056
3401.8157,91.5427
3402.7798,91.577
3403.7441,91.61
3404.7083,91.6428
3405.6726,91.6743
3406.6367,91.7016
3407.6011,91.7228
3408.5652,91.7387
3409.5295,91.7532
3410.4937,91.7716
3411.4580,91.7977
3412.4221,91.8314
3413.3865,91.8689
3414.3506,91.9046
3415.3149,91.9352
3416.2791,91.9615
3417.2434,91.9883
3418.2075,92.0209
3419.1719,92.0618
3420.1360,92.1088
3421.1003,92.1563
3422.0645,92.1994
3423.0288,92.2373
3423.9929,92.2733
3424.9573,92.3113
3425.9214,92.3528
3426.8857,92.3943
3427.8499,92.4287
3428.8142,92.4492
3429.7783,92.4547
3430.7427,92.4517
3431.7068,92.4522
3432.6711,92.4679
3433.6353,92.504
3434.5996,92.5575
3435.5637,92.6194
3436.5281,92.6798
3437.4922,92.7316
3438.4565,92.7714
3439.4207,92.7985
3440.3850,92.8139
3441.3491,92.8209
3442.3135,92.8272
3443.2776,92.8447
3444.2419,92.8857
3445.2061,92.955
3446.1704,93.0445
3447.1345,93.1348
3448.0989,93.2061
3449.0630,93.2495
3450.0273,93.2712
3450.9915,93.2867
3451.9558,93.3113
3452.9199,93.3519
3453.8843,93.4043
3454.8484,93.4565
3455.8127,93.4979
3456.7769,93.5257
3457.7412,93.5463
3458.7053,93.5699
3459.6697,93.6041
3460.6338,93.6493
3461.5981,93.7007
3462.5623,93.7526
3463.5266,93.8029
3464.4907,93.8537
3465.4551,93.9089
3466.4192,93.9696
3467.3835,94.0321
3468.3477,94.0889
3469.3120,94.1331
3470.2761,94.1621
3471.2405,94.1796
3472.2046,94.1932
3473.1689,94.2106
3474.1331,94.2358
3475.0974,94.2678
3476.0615,94.3036
3477.0259,94.3414
3477.9900,94.3828
3478.9543,94.4308
3479.9185,94.4859
3480.8828,94.5437
3481.8469,94.5965
3482.8113,94.64
3483.7754,94.6758
3484.7397,94.7106
3485.7039,94.7513
3486.6682,94.7997
3487.6323,94.8519
3488.5967,94.9008
3489.5608,94.942
3490.5251,94.9775
3491.4893,95.0136
3492.4536,95.057
3493.4177,95.1096
3494.3821,95.1663
3495.3462,95.2175
3496.3105,95.2547
3497.2747,95.2777
3498.2390,95.2953
3499.2031,95.3215
3500.1675,95.3692
3501.1316,95.4401
3502.0959,95.5205
3503.0601,95.5878
3504.0244,95.6264
3504.9885,95.6374
3505.9529,95.6358
3506.9170,95.6414
3507.8813,95.6704
3508.8455,95.7284
3509.8098,95.8069
3510.7739,95.8893
3511.7383,95.9611
3512.7024,96.0152
3513.6667,96.0514
3514.6309,96.0734
3515.5952,96.0859
3516.5593,96.094
3517.5237,96.1037
3518.4878,96.1218
3519.4521,96.1547
3520.4163,96.2062
3521.3806,96.2743
3522.3447,96.352
3523.3091,96.4307
3524.2732,96.5058
3525.2375,96.5778
3526.2017,96.6482
3527.1660,96.7133
3528.1301,96.7643
3529.0945,96.7937
3530.0586,96.8024
3531.0229,96.8007
3531.9871,96.8026
3532.9514,96.8209
3533.9155,96.8615
3534.8799,96.9209
3535.8440,96.9871
3536.8083,97.0455
3537.7725,97.0873
3538.7368,97.1114
3539.7009,97.1228
3540.6653,97.1311
3541.6294,97.1507
3542.5938,97.1976
3543.5579,97.2788
3544.5222,97.3819
3545.4863,97.4788
3546.4507,97.5458
3547.4148,97.5795
3548.3792,97.5926
3549.3433,97.604
3550.3076,97.6324
3551.2717,97.6884
3552.2361,97.7677
3553.2002,97.8531
3554.1646,97.9259
3555.1287,97.9775
3556.0930,98.0119
3557.0571,98.0414
3558.0215,98.0772
3558.9856,98.1184
3559.9500,98.1481
3560.9141,98.1443
3561.8784,98.0985
3562.8425,98.0324
3563.8069,98.0008
3564.7710,98.0657
3565.7354,98.2367
3566.6995,98.4357
3567.6638,98.569
3568.6279,98.6206
3569.5923,98.6239
3570.5564,98.6027
3571.5208,98.5689
3572.4849,98.5391
3573.4492,98.5352
3574.4133,98.5715
3575.3777,98.6463
3576.3418,98.7451
3577.3062,98.849
3578.2703,98.9397
3579.2346,98.9985
3580.1987,99.0071
3581.1631,98.9544
3582.1272,98.8463
3583.0916,98.7155
3584.0557,98.6251
3585.0200,98.6482
3585.9841,98.8085
3586.9485,99.0296
3587.9126,99.1909
3588.8770,99.2431
3589.8411,99.2149
3590.8054,99.1516
3591.7695,99.0929
3592.7339,99.0735
3593.6980,99.1094
3594.6624,99.1844
3595.6265,99.2664
3596.5908,99.3389
3597.5549,99.4113
3598.5193,99.5015
3599.4834,99.6113
3600.4478,99.7159
3601.4119,99.7792
3602.3762,99.7792
3603.3403,99.7217
3604.3047,99.6398
3605.2688,99.5824
3606.2332,99.5906
3607.1973,99.6701
3608.1616,99.7873
3609.1257,99.9033
3610.0901,100.002
3611.0542,100.086
3612.0186,100.152
3612.9829,100.186
3613.9470,100.174
3614.9114,100.124
3615.8755,100.074
3616.8398,100.08
3617.8040,100.177
3618.7683,100.339
3619.7324,100.491
3620.6968,100.572
3621.6609,100.557
3622.6252,100.44
3623.5894,100.224
3624.5537,99.9529
3625.5178,99.74
3626.4822,99.7437
3627.4463,100.044
3628.4106,100.489
3629.3748,100.816
3630.3391,100.946
3631.3032,100.962
3632.2676,100.942
3633.2317,100.919
3634.1960,100.917
3635.1602,100.95
3636.1245,101.021
3637.0886,101.122
3638.0530,101.238
3639.0171,101.358
3639.9814,101.465
3640.9456,101.535
3641.9099,101.536
3642.8740,101.445
3643.8384,101.27
3644.8025,101.087
3645.7668,101.057
3646.7310,101.389
3647.6953,102.122
3648.6594,102.832
3649.6238,103.022
3650.5879,102.783
3651.5522,102.441
3652.5164,102.135
3653.4807,101.894
3654.4448,101.749
3655.4092,101.743
3656.3733,101.876
3657.3376,102.094
3658.3018,102.319
3659.2661,102.504
3660.2302,102.632
3661.1946,102.707
3662.1587,102.731
3663.1230,102.693
3664.0872,102.582
3665.0515,102.41
3666.0156,102.236
3666.9800,102.16
3667.9441,102.259
3668.9084,102.481
3669.8726,102.643
3670.8369,102.615
3671.8010,102.437
3672.7654,102.261
3673.7295,102.244
3674.6938,102.445
3675.6580,102.741
3676.6223,102.95
3677.5864,103.02
3678.5508,103.001
3679.5149,102.935
3680.4792,102.839
3681.4434,102.716
3682.4077,102.558
3683.3718,102.353
3684.3362,102.107
3685.3003,101.874
3686.2646,101.772
3687.2288,101.931
3688.1931,102.356
3689.1572,102.826
3690.1216,103.077
3691.0857,103.065
3692.0500,102.902
3693.0142,102.682
3693.9785,102.445
3694.9426,102.208
3695.9070,101.979
3696.8711,101.776
3697.8354,101.628
3698.7996,101.574
3699.7639,101.644
3700.7280,101.824
3701.6924,102.037
3702.6565,102.184
3703.6208,102.204
3704.5850,102.086
3705.5493,101.86
3706.5134,101.592
3707.4778,101.383
3708.4419,101.362
3709.4063,101.607
3710.3704,102.025
3711.3347,102.384
3712.2988,102.542
3713.2632,102.535
3714.2273,102.439
3715.1917,102.292
3716.1558,102.115
3717.1201,101.939
3718.0842,101.81
3719.0486,101.761
3720.0127,101.804
3720.9771,101.923
3721.9412,102.092
3722.9055,102.281
3723.8696,102.453
3724.8340,102.564
3725.7981,102.575
3726.7625,102.477
3727.7266,102.282
3728.6909,102.021
3729.6550,101.747
3730.6194,101.542
3731.5835,101.528
3732.5479,101.823
3733.5120,102.441
3734.4763,103.166
3735.4404,103.664
3736.4048,103.798
3737.3689,103.661
3738.3333,103.359
3739.2974,102.934
3740.2617,102.423
3741.2258,101.928
3742.1902,101.61
3743.1543,101.596
3744.1187,101.831
3745.0828,102.104
3746.0471,102.258
3747.0112,102.295
3747.9756,102.317
3748.9397,102.437
3749.9041,102.647
3750.8682,102.77
3751.8325,102.68
3752.7966,102.456
3753.7610,102.203
3754.7251,101.964
3755.6895,101.766
3756.6536,101.654
3757.6179,101.655
3758.5820,101.734
3759.5464,101.813
3760.5105,101.83
3761.4749,101.773
3762.4390,101.665
3763.4033,101.545
3764.3674,101.45
3765.3318,101.408
3766.2959,101.426
3767.2603,101.494
3768.2244,101.588
3769.1887,101.678
3770.1528,101.733
3771.1172,101.729
3772.0813,101.662
3773.0457,101.536
3774.0098,101.37
3774.9741,101.204
3775.9382,101.093
3776.9026,101.094
3777.8667,101.213
3778.8311,101.391
3779.7952,101.543
3780.7595,101.622
3781.7236,101.63
3782.6880,101.594
3783.6521,101.541
3784.6165,101.488
3785.5806,101.439
3786.5449,101.396
3787.5090,101.358
3788.4734,101.322
3789.4375,101.283
3790.4019,101.232
3791.3660,101.177
3792.3303,101.139
3793.2944,101.145
3794.2588,101.209
3795.2229,101.306
3796.1873,101.391
3797.1514,101.426
3798.1157,101.416
3799.0798,101.396
3800.0442,101.384
3801.0083,101.348
3801.9727,101.246
3802.9368,101.079
3803.9011,100.899
3804.8652,100.772
3805.8296,100.756
3806.7937,100.865
3807.7581,101.049
3808.7222,101.215
3809.6865,101.29
3810.6506,101.244
3811.6150,101.106
3812.5791,100.957
3813.5435,100.898
3814.5076,100.971
3815.4719,101.114
3816.4360,101.214
3817.4004,101.22
3818.3645,101.166
3819.3289,101.118
3820.2930,101.102
3821.2573,101.101
3822.2214,101.094
3823.1858,101.085
3824.1499,101.078
3825.1143,101.074
3826.0784,101.079
3827.0427,101.098
3828.0068,101.128
3828.9712,101.159
3829.9353,101.171
3830.8997,101.146
3831.8638,101.072
3832.8281,100.947
3833.7922,100.789
3834.7566,100.641
3835.7207,100.563
3836.6851,100.592
3837.6492,100.717
3838.6135,100.876
3839.5776,101.017
3840.5420,101.128
3841.5061,101.219
3842.4705,101.301
3843.4346,101.367
3844.3989,101.395
3845.3630,101.355
3846.3274,101.211
3847.2915,100.936
3848.2559,100.534
3849.2200,100.075
3850.1843,99.7275
3851.1484,99.7449
3852.1128,100.263
3853.0769,100.979
3854.0413,101.404
3855.0054,101.476
3855.9697,101.379
3856.9338,101.202
3857.8982,100.959
3858.8623,100.681
3859.8267,100.444
3860.7908,100.342
3861.7551,100.427
3862.7192,100.65
3863.6836,100.871
3864.6477,100.966
3865.6121,100.904
3866.5762,100.744
3867.5405,100.577
3868.5046,100.487
3869.4690,100.513
3870.4331,100.629
3871.3975,100.763
3872.3616,100.847
3873.3259,100.851
3874.2900,100.778
3875.2544,100.649
3876.2185,100.497
3877.1829,100.373
3878.1470,100.328
3879.1113,100.386
3880.0754,100.518
3881.0398,100.656
3882.0039,100.738
3882.9683,100.746
3883.9324,100.691
3884.8967,100.595
3885.8608,100.474
3886.8252,100.342
3887.7893,100.224
3888.7537,100.161
3889.7178,100.206
3890.6821,100.378
3891.6462,100.617
3892.6106,100.81
3893.5747,100.87
3894.5391,100.782
3895.5032,100.582
3896.4675,100.341
3897.4316,100.141
3898.3960,100.048
3899.3601,100.079
3900.3245,100.201
3901.2886,100.363
3902.2529,100.519
3903.2170,100.633
3904.1814,100.685
3905.1455,100.679
3906.1099,100.634
3907.0740,100.566
3908.0383,100.488
3909.0024,100.409
3909.9668,100.337
3910.9309,100.275
3911.8953,100.221
3912.8594,100.176
3913.8237,100.152
3914.7878,100.169
3915.7522,100.238
3916.7163,100.342
3917.6807,100.44
3918.6448,100.494
3919.6091,100.491
3920.5732,100.446
3921.5376,100.387
3922.5017,100.342
3923.4661,100.319
3924.4302,100.312
3925.3945,100.299
3926.3586,100.266
3927.3230,100.216
3928.2871,100.169
3929.2515,100.152
3930.2156,100.185
3931.1799,100.262
3932.1440,100.35
3933.1084,100.413
3934.0725,100.429
3935.0369,100.393
3936.0010,100.31
3936.9653,100.197
3937.9294,100.076
3938.8938,99.9796
3939.8579,99.935
3940.8223,99.9548
3941.7864,100.025
3942.7507,100.108
3943.7148,100.167
3944.6792,100.183
3945.6433,100.163
3946.6077,100.132
3947.5718,100.115
3948.5361,100.123
3949.5002,100.143
3950.4646,100.154
3951.4287,100.138
3952.3931,100.094
3953.3572,100.035
3954.3215,99.9787
3955.2856,99.9436
3956.2500,99.9386
3957.2141,99.9635
3958.1785,100.012
3959.1426,100.074
3960.1069,100.138
3961.0710,100.19
3962.0354,100.216
3962.9995,100.209
3963.9639,100.168
3964.9280,100.105
3965.8923,100.034
3966.8564,99.9708
3967.8208,99.9254
3968.7849,99.902
3969.7493,99.8997
3970.7134,99.915
3971.6777,99.943
3972.6418,99.9772
3973.6062,100.008
3974.5703,100.026
3975.5347,100.024
3976.4988,100.002
3977.4631,99.9693
3978.4272,99.937
3979.3916,99.9158
3980.3557,99.9094
3981.3201,99.9138
3982.2842,99.9201
3983.2485,99.9196
3984.2126,99.9082
3985.1770,99.8876
3986.1411,99.8636
3987.1055,99.8433
3988.0696,99.8316
3989.0339,99.8293
3989.9980,99.8329
3990.9624,99.8364
3991.9265,99.8351
3992.8909,99.8283
3993.8550,99.82
3994.8193,99.8159
3995.7834,99.8192
3996.7478,99.8322
3997.7119,99.8456
3998.6763,99.8497
3999.6404,99.8413
4000.6047,99.976

##### Extended Information
[Comments]
Sample name
Comment
User
Division
Company,HANKYONG

[Detailed Information]
Creation date,4/24/2024 3:33 PM

Data array type,Linear data array
Horizontal axis,Wavenumber [cm-1]
Vertical axis,%T
Start,649.893 cm-1
End,4000.6 cm-1
Data interval,0.964233 cm-1
Data points,3476    

[Measurement Information]
Model Name,FT/IR-4700typeA
Serial Number,D056761788

Accessory,ATR PRO ONE
Accessory S/N,C174761809
Incident angle,45 deg

Measurement Date,4/24/2024 3:30 PM

Light Source,Standard
Detector,TGS
Accumulation,32
Resolution,4 cm-1
Zero Filling,On
Apodization,Cosine
Gain,Auto (4)
Aperture,Auto (7.1 mm)
Scanning Speed,Auto (2 mm/sec)
Filter,Auto (30000 Hz)

