TITLE,
DATA TYPE,INFRARED SPECTRUM
ORIGIN,JASCO
OWNER,
DATE,24/04/24
TIME,15:39:07
SPECTROMETER/DATA SYSTEM,
LOCALE,1033
RESOLUTION,
DELTAX,0.964233
XUNITS,1/CM
YUNITS,TRANSMITTANCE
FIRSTX,  649.8934
LASTX, 4000.6047
NPOINTS,    3476
FIRSTY,    99.40128
MAXY,   101.76493
MINY,    82.86760
XYDATA
649.8934,99.4013
650.8576,99.3858
651.8218,99.365
652.7861,99.3284
653.7503,99.259
654.7145,99.1545
655.6788,99.0332
656.6430,98.9261
657.6072,98.8559
658.5715,98.8221
659.5357,98.8026
660.4999,98.7727
661.4642,98.7281
662.4284,98.691
663.3926,98.697
664.3569,98.7792
665.3211,98.9621
666.2853,99.2503
667.2496,99.5893
668.2138,99.8267
669.1780,99.8305
670.1423,99.6752
671.1065,99.5238
672.0707,99.4567
673.0350,99.4793
673.9992,99.5676
674.9634,99.6885
675.9277,99.8118
676.8919,99.9229
677.8561,100.027
678.8204,100.14
679.7846,100.266
680.7488,100.394
681.7131,100.499
682.6773,100.561
683.6415,100.575
684.6058,100.557
685.5700,100.528
686.5342,100.504
687.4985,100.486
688.4627,100.466
689.4269,100.436
690.3912,100.392
691.3554,100.343
692.3196,100.305
693.2839,100.289
694.2481,100.295
695.2123,100.307
696.1766,100.305
697.1408,100.281
698.1050,100.243
699.0693,100.202
700.0335,100.168
700.9977,100.147
701.9620,100.137
702.9262,100.136
703.8904,100.141
704.8547,100.148
705.8189,100.155
706.7831,100.157
707.7474,100.148
708.7116,100.128
709.6758,100.098
710.6401,100.063
711.6043,100.031
712.5685,100.009
713.5328,100.002
714.4970,100.016
715.4612,100.078
716.4255,100.142
717.3897,100.223
718.3539,100.304
719.3182,100.367
720.2824,100.398
721.2466,100.4
722.2109,100.387
723.1751,100.378
724.1393,100.38
725.1036,100.39
726.0678,100.395
727.0320,100.386
727.9963,100.358
728.9605,100.322
729.9247,100.291
730.8890,100.281
731.8532,100.3
732.8174,100.343
733.7817,100.398
734.7459,100.445
735.7101,100.466
736.6744,100.456
737.6386,100.421
738.6028,100.378
739.5671,100.345
740.5313,100.329
741.4955,100.326
742.4598,100.323
743.4240,100.309
744.3882,100.283
745.3525,100.252
746.3167,100.225
747.2809,100.209
748.2452,100.207
749.2094,100.217
750.1736,100.236
751.1379,100.262
752.1021,100.291
753.0663,100.315
754.0306,100.328
754.9948,100.324
755.9590,100.307
756.9233,100.283
757.8875,100.26
758.8517,100.239
759.8160,100.22
760.7802,100.197
761.7444,100.17
762.7087,100.141
763.6729,100.118
764.6371,100.106
765.6014,100.108
766.5656,100.122
767.5298,100.142
768.4941,100.162
769.4583,100.176
770.4225,100.179
771.3868,100.173
772.3510,100.158
773.3152,100.139
774.2795,100.119
775.2437,100.101
776.2079,100.086
777.1722,100.07
778.1364,100.051
779.1006,100.027
780.0649,100.005
781.0291,100.011
781.9933,100.016
782.9576,100.026
783.9218,100.044
784.8860,100.072
785.8503,100.107
786.8145,100.141
787.7787,100.164
788.7430,100.165
789.7072,100.14
790.6714,100.095
791.6357,100.046
792.5999,100.01
793.5641,99.9987
794.5284,100.012
795.4926,100.042
796.4568,100.073
797.4211,100.096
798.3853,100.104
799.3495,100.099
800.3138,100.086
801.2780,100.069
802.2422,100.05
803.2065,100.029
804.1707,100.005
805.1349,99.9773
806.0992,99.9472
807.0634,99.919
808.0276,99.8987
808.9919,99.8915
809.9561,99.9001
810.9203,99.9218
811.8846,99.9492
812.8488,99.9724
813.8130,99.9819
814.7773,99.9725
815.7415,99.944
816.7057,99.9009
817.6700,99.8508
818.6342,99.8015
819.5984,99.76
820.5627,99.7307
821.5269,99.715
822.4911,99.7118
823.4554,99.7173
824.4196,99.727
825.3839,99.7365
826.3481,99.7422
827.3123,99.742
828.2766,99.7346
829.2408,99.7195
830.2050,99.6972
831.1693,99.6697
832.1335,99.6407
833.0977,99.6154
834.0620,99.5994
835.0262,99.5966
835.9904,99.6071
836.9547,99.627
837.9189,99.6492
838.8831,99.6665
839.8474,99.6747
840.8116,99.6742
841.7758,99.6688
842.7401,99.6636
843.7043,99.6625
844.6685,99.6664
845.6328,99.6735
846.5970,99.681
847.5612,99.686
848.5255,99.687
849.4897,99.6843
850.4539,99.6793
851.4182,99.6739
852.3824,99.6694
853.3466,99.6657
854.3109,99.6621
855.2751,99.6575
856.2393,99.6517
857.2036,99.645
858.1678,99.6368
859.1320,99.6247
860.0963,99.6054
861.0605,99.576
862.0247,99.5368
862.9890,99.4907
863.9532,99.442
864.9174,99.3929
865.8817,99.3427
866.8459,99.289
867.8101,99.2302
868.7744,99.1667
869.7386,99.0996
870.7028,99.0289
871.6671,98.9522
872.6313,98.8676
873.5955,98.7728
874.5598,98.6758
875.5240,98.5867
876.4882,98.5111
877.4525,98.4476
878.4167,98.3882
879.3809,98.3232
880.3452,98.2461
881.3094,98.1567
882.2736,98.0588
883.2379,97.9568
884.2021,97.8535
885.1663,97.7507
886.1306,97.651
887.0948,97.5586
888.0590,97.4765
889.0233,97.4023
889.9875,97.3276
890.9517,97.2414
891.9160,97.1378
892.8802,97.022
893.8444,96.9104
894.8087,96.8241
895.7729,96.7792
896.7371,96.7792
897.7014,96.815
898.6656,96.8702
899.6298,96.9293
900.5941,96.983
901.5583,97.0289
902.5225,97.0684
903.4868,97.1033
904.4510,97.1339
905.4152,97.1601
906.3795,97.1816
907.3437,97.1982
908.3079,97.2088
909.2722,97.2109
910.2364,97.2021
911.2006,97.1823
912.1649,97.1544
913.1291,97.1234
914.0933,97.0924
915.0576,97.06
916.0218,97.0212
916.9860,96.971
917.9503,96.9091
918.9145,96.8417
919.8787,96.7783
920.8430,96.7267
921.8072,96.688
922.7714,96.6565
923.7357,96.6229
924.6999,96.5799
925.6641,96.5251
926.6284,96.461
927.5926,96.3924
928.5568,96.324
929.5211,96.2586
930.4853,96.1978
931.4495,96.1413
932.4138,96.0872
933.3780,96.0309
934.3422,95.967
935.3065,95.8906
936.2707,95.8003
937.2349,95.6979
938.1992,95.5877
939.1634,95.4739
940.1276,95.359
941.0919,95.2439
942.0561,95.1287
943.0203,95.0131
943.9846,94.8954
944.9488,94.7715
945.9130,94.6355
946.8773,94.4823
947.8415,94.311
948.8057,94.127
949.7700,93.9395
950.7342,93.7574
951.6984,93.5842
952.6627,93.4162
953.6269,93.2453
954.5911,93.0639
955.5554,92.8694
956.5196,92.6657
957.4838,92.4602
958.4481,92.259
959.4123,92.0642
960.3765,91.8731
961.3408,91.6813
962.3050,91.4857
963.2692,91.2863
964.2335,91.0858
965.1977,90.8876
966.1619,90.6936
967.1262,90.503
968.0904,90.3132
969.0546,90.1201
970.0189,89.9191
970.9831,89.706
971.9473,89.4789
972.9116,89.238
973.8758,88.9865
974.8400,88.7287
975.8043,88.4678
976.7685,88.205
977.7327,87.9395
978.6970,87.6704
979.6612,87.3992
980.6254,87.1303
981.5897,86.8705
982.5539,86.6269
983.5181,86.405
984.4824,86.2076
985.4466,86.0348
986.4108,85.8846
987.3751,85.7538
988.3393,85.64
989.3035,85.5424
990.2678,85.4613
991.2320,85.397
992.1962,85.3472
993.1605,85.3064
994.1247,85.2666
995.0889,85.2208
996.0532,85.1665
997.0174,85.1061
997.9816,85.0456
998.9459,84.9909
999.9101,84.944
1000.8743,84.902
1001.8386,84.8591
1002.8028,84.8093
1003.7670,84.7487
1004.7313,84.6765
1005.6955,84.5937
1006.6597,84.5018
1007.6240,84.4014
1008.5882,84.2919
1009.5524,84.1724
1010.5167,84.0433
1011.4809,83.9066
1012.4451,83.7662
1013.4094,83.6278
1014.3736,83.4973
1015.3378,83.3793
1016.3021,83.2765
1017.2663,83.1882
1018.2305,83.1109
1019.1948,83.0406
1020.1590,82.9753
1021.1232,82.9188
1022.0875,82.8795
1023.0517,82.8676
1024.0160,82.888
1024.9802,82.9351
1025.9445,82.9926
1026.9087,83.0395
1027.8729,83.0613
1028.8372,83.0588
1029.8014,83.0492
1030.7656,83.0586
1031.7299,83.1097
1032.6941,83.2134
1033.6583,83.3654
1034.6226,83.5502
1035.5868,83.7482
1036.5510,83.9431
1037.5153,84.1252
1038.4795,84.2919
1039.4437,84.4445
1040.4080,84.5863
1041.3722,84.7197
1042.3364,84.8467
1043.3007,84.9681
1044.2649,85.0854
1045.2291,85.2006
1046.1934,85.317
1047.1576,85.4376
1048.1218,85.5652
1049.0861,85.7009
1050.0503,85.8459
1051.0145,86.0028
1051.9788,86.1767
1052.9430,86.3747
1053.9072,86.6019
1054.8715,86.857
1055.8357,87.1299
1056.7999,87.4045
1057.7642,87.6667
1058.7284,87.9138
1059.6926,88.1586
1060.6569,88.4247
1061.6211,88.7338
1062.5853,89.0923
1063.5496,89.4834
1064.5138,89.8708
1065.4780,90.2131
1066.4423,90.4838
1067.4065,90.6835
1068.3707,90.8373
1069.3350,90.9802
1070.2992,91.14
1071.2634,91.3283
1072.2277,91.5405
1073.1919,91.7624
1074.1561,91.9786
1075.1204,92.1775
1076.0846,92.3536
1077.0488,92.5056
1078.0131,92.6353
1078.9773,92.7457
1079.9415,92.84
1080.9058,92.9208
1081.8700,92.9892
1082.8342,93.0456
1083.7985,93.0899
1084.7627,93.1226
1085.7269,93.1445
1086.6912,93.157
1087.6554,93.1612
1088.6196,93.1594
1089.5839,93.1546
1090.5481,93.1506
1091.5123,93.1511
1092.4766,93.1594
1093.4408,93.1777
1094.4050,93.2078
1095.3693,93.2505
1096.3335,93.3048
1097.2977,93.3662
1098.2620,93.4267
1099.2262,93.4781
1100.1904,93.5152
1101.1547,93.5399
1102.1189,93.5597
1103.0831,93.5843
1104.0474,93.6194
1105.0116,93.6636
1105.9758,93.7096
1106.9401,93.7493
1107.9043,93.7791
1108.8685,93.8023
1109.8328,93.8274
1110.7970,93.863
1111.7612,93.9137
1112.7255,93.9781
1113.6897,94.0512
1114.6539,94.1271
1115.6182,94.2022
1116.5824,94.2758
1117.5466,94.3488
1118.5109,94.4226
1119.4751,94.4978
1120.4393,94.5754
1121.4036,94.6583
1122.3678,94.7516
1123.3320,94.8617
1124.2963,94.9936
1125.2605,95.1489
1126.2247,95.3253
1127.1890,95.5174
1128.1532,95.7207
1129.1174,95.9325
1130.0817,96.1525
1131.0459,96.3806
1132.0101,96.6133
1132.9744,96.8432
1133.9386,97.0594
1134.9028,97.2513
1135.8671,97.4117
1136.8313,97.5391
1137.7955,97.6364
1138.7598,97.7082
1139.7240,97.7576
1140.6882,97.7848
1141.6525,97.7884
1142.6167,97.7674
1143.5809,97.7233
1144.5452,97.661
1145.5094,97.5869
1146.4736,97.507
1147.4379,97.4245
1148.4021,97.3399
1149.3663,97.2524
1150.3306,97.1625
1151.2948,97.0733
1152.2590,96.9909
1153.2233,96.9221
1154.1875,96.8719
1155.1517,96.842
1156.1160,96.8312
1157.0802,96.8374
1158.0444,96.8597
1159.0087,96.8999
1159.9729,96.9619
1160.9371,97.0502
1161.9014,97.168
1162.8656,97.3151
1163.8298,97.4885
1164.7941,97.6824
1165.7583,97.8904
1166.7225,98.1062
1167.6868,98.3248
1168.6510,98.5421
1169.6152,98.7544
1170.5795,98.958
1171.5437,99.1491
1172.5079,99.324
1173.4722,99.4806
1174.4364,99.6184
1175.4006,99.7383
1176.3649,99.8416
1177.3291,99.9291
1178.2933,100
1179.2576,100.054
1180.2218,100.09
1181.1860,100.108
1182.1503,100.109
1183.1145,100.096
1184.0787,100.073
1185.0430,100.043
1186.0072,100.028
1186.9714,100.009
1187.9357,99.984
1188.8999,99.9505
1189.8641,99.9069
1190.8284,99.8525
1191.7926,99.788
1192.7568,99.7141
1193.7211,99.6312
1194.6853,99.5393
1195.6495,99.4387
1196.6138,99.3312
1197.5780,99.2199
1198.5422,99.1077
1199.5065,98.9628
1200.4707,98.8561
1201.4349,98.7481
1202.3992,98.6368
1203.3634,98.5221
1204.3276,98.4057
1205.2919,98.2902
1206.2561,98.1778
1207.2203,98.0687
1208.1846,97.9611
1209.1488,97.8518
1210.1130,97.7373
1211.0773,97.6152
1212.0415,97.4851
1213.0057,97.3494
1213.9700,97.2126
1214.9342,97.0795
1215.8984,96.9538
1216.8627,96.8368
1217.8269,96.7273
1218.7911,96.6238
1219.7554,96.5254
1220.7196,96.432
1221.6838,96.3442
1222.6481,96.2623
1223.6123,96.1858
1224.5765,96.1139
1225.5408,96.0463
1226.5050,95.9832
1227.4692,95.9258
1228.4335,95.8747
1229.3977,95.8302
1230.3619,95.792
1231.3262,95.7593
1232.2904,95.7314
1233.2546,95.708
1234.2189,95.6897
1235.1831,95.6793
1236.1473,95.6813
1237.1116,95.7002
1238.0758,95.7378
1239.0400,95.7907
1240.0043,95.8508
1240.9685,95.9088
1241.9327,95.9595
1242.8970,96.0053
1243.8612,96.0553
1244.8254,96.1204
1245.7897,96.2068
1246.7539,96.3127
1247.7181,96.4293
1248.6824,96.5454
1249.6466,96.6524
1250.6108,96.7467
1251.5751,96.8293
1252.5393,96.9032
1253.5035,96.9716
1254.4678,97.0375
1255.4320,97.1038
1256.3962,97.1738
1257.3605,97.2497
1258.3247,97.3315
1259.2889,97.4165
1260.2532,97.5006
1261.2174,97.5806
1262.1816,97.6556
1263.1459,97.7274
1264.1101,97.7981
1265.0743,97.8692
1266.0386,97.9409
1267.0028,98.0131
1267.9670,98.0871
1268.9313,98.1657
1269.8955,98.2517
1270.8597,98.3469
1271.8240,98.4502
1272.7882,98.5585
1273.7524,98.6675
1274.7167,98.7741
1275.6809,98.8763
1276.6451,98.9732
1277.6094,99.0648
1278.5736,99.1513
1279.5378,99.2326
1280.5021,99.3087
1281.4663,99.3795
1282.4305,99.4449
1283.3948,99.5051
1284.3590,99.5602
1285.3232,99.6103
1286.2875,99.655
1287.2517,99.6931
1288.2159,99.723
1289.1802,99.7442
1290.1444,99.7573
1291.1086,99.7645
1292.0729,99.7677
1293.0371,99.7676
1294.0013,99.7554
1294.9656,99.7233
1295.9298,99.6805
1296.8940,99.6252
1297.8583,99.5574
1298.8225,99.4792
1299.7867,99.3933
1300.7510,99.3029
1301.7152,99.2109
1302.6794,99.1193
1303.6437,99.029
1304.6079,98.9401
1305.5721,98.8521
1306.5364,98.7641
1307.5006,98.6749
1308.4648,98.5835
1309.4291,98.4889
1310.3933,98.3907
1311.3575,98.2898
1312.3218,98.1886
1313.2860,98.0912
1314.2502,98.0016
1315.2145,97.923
1316.1787,97.8562
1317.1429,97.8002
1318.1072,97.7531
1319.0714,97.7129
1320.0356,97.6788
1320.9999,97.6506
1321.9641,97.628
1322.9283,97.6101
1323.8926,97.5952
1324.8568,97.5814
1325.8210,97.5679
1326.7853,97.5561
1327.7495,97.5492
1328.7137,97.5512
1329.6780,97.5649
1330.6422,97.5905
1331.6064,97.6255
1332.5707,97.666
1333.5349,97.71
1334.4991,97.7588
1335.4634,97.8176
1336.4276,97.8921
1337.3918,97.9833
1338.3561,98.0821
1339.3203,98.1721
1340.2845,98.2411
1341.2488,98.2896
1342.2130,98.3264
1343.1772,98.3593
1344.1415,98.3913
1345.1057,98.4213
1346.0699,98.4458
1347.0342,98.4606
1347.9984,98.4633
1348.9626,98.4545
1349.9269,98.4368
1350.8911,98.4133
1351.8553,98.3856
1352.8196,98.3528
1353.7838,98.3129
1354.7480,98.2639
1355.7123,98.2064
1356.6765,98.1437
1357.6407,98.0805
1358.6050,98.0218
1359.5692,97.9711
1360.5334,97.9292
1361.4977,97.8917
1362.4619,97.8528
1363.4261,97.8131
1364.3904,97.78
1365.3546,97.7589
1366.3188,97.7496
1367.2831,97.7478
1368.2473,97.7498
1369.2115,97.7548
1370.1758,97.7667
1371.1400,97.7939
1372.1042,97.8458
1373.0685,97.926
1374.0327,98.0269
1374.9969,98.1326
1375.9612,98.2317
1376.9254,98.3252
1377.8896,98.4214
1378.8539,98.5279
1379.8181,98.6455
1380.7823,98.7664
1381.7466,98.8787
1382.7108,98.9741
1383.6750,99.0522
1384.6393,99.1205
1385.6035,99.1877
1386.5677,99.257
1387.5320,99.3272
1388.4962,99.3995
1389.4604,99.4777
1390.4247,99.562
1391.3889,99.6478
1392.3531,99.7275
1393.3174,99.7897
1394.2816,99.8192
1395.2458,99.8061
1396.2101,99.7591
1397.1743,99.7033
1398.1385,99.6621
1399.1028,99.6444
1400.0670,99.646
1401.0313,99.6574
1401.9955,99.6702
1402.9597,99.6777
1403.9240,99.6735
1404.8882,99.6506
1405.8524,99.605
1406.8167,99.5386
1407.7809,99.4571
1408.7451,99.3639
1409.7094,99.2594
1410.6736,99.144
1411.6378,99.0214
1412.6021,98.8973
1413.5663,98.7745
1414.5305,98.6514
1415.4948,98.5251
1416.4590,98.3955
1417.4232,98.2633
1418.3875,98.1315
1419.3517,98.0152
1420.3159,97.9376
1421.2802,97.9069
1422.2444,97.9109
1423.2086,97.9323
1424.1729,97.9599
1425.1371,97.9909
1426.1013,98.0286
1427.0656,98.08
1428.0298,98.1512
1428.9940,98.2409
1429.9583,98.3362
1430.9225,98.4189
1431.8867,98.4767
1432.8510,98.511
1433.8152,98.5368
1434.7794,98.5745
1435.7437,98.6319
1436.7079,98.6936
1437.6721,98.7407
1438.6364,98.7721
1439.6006,98.7924
1440.5648,98.7989
1441.5291,98.7873
1442.4933,98.7581
1443.4575,98.7168
1444.4218,98.6697
1445.3860,98.6207
1446.3502,98.5695
1447.3145,98.5143
1448.2787,98.4554
1449.2429,98.398
1450.2072,98.3469
1451.1714,98.2997
1452.1356,98.2492
1453.0999,98.1956
1454.0641,98.16
1455.0283,98.182
1455.9926,98.2723
1456.9568,98.3451
1457.9210,98.3177
1458.8853,98.2557
1459.8495,98.2341
1460.8137,98.2499
1461.7780,98.2833
1462.7422,98.3375
1463.7064,98.4288
1464.6707,98.5577
1465.6349,98.6979
1466.5991,98.8205
1467.5634,98.9135
1468.5276,98.9809
1469.4918,99.0438
1470.4561,99.1403
1471.4203,99.3056
1472.3845,99.5254
1473.3488,99.7233
1474.3130,99.8479
1475.2772,99.9248
1476.2415,99.9937
1477.2057,100.067
1478.1699,100.138
1479.1342,100.201
1480.0984,100.248
1481.0626,100.276
1482.0269,100.276
1482.9911,100.243
1483.9553,100.191
1484.9196,100.131
1485.8838,100.075
1486.8480,100.037
1487.8123,100.012
1488.7765,99.9631
1489.7407,99.8576
1490.7050,99.7178
1491.6692,99.5843
1492.6334,99.4675
1493.5977,99.3575
1494.5619,99.2476
1495.5261,99.1374
1496.4904,99.0206
1497.4546,98.8833
1498.4188,98.7297
1499.3831,98.5863
1500.3473,98.4649
1501.3115,98.351
1502.2758,98.2286
1503.2400,98.1072
1504.2042,98.0412
1505.1685,98.1243
1506.1327,98.3969
1507.0969,98.6727
1508.0612,98.7312
1509.0254,98.6712
1509.9896,98.6392
1510.9539,98.6543
1511.9181,98.6958
1512.8823,98.7566
1513.8466,98.8431
1514.8108,98.9586
1515.7750,99.0895
1516.7393,99.2099
1517.7035,99.3033
1518.6677,99.3771
1519.6320,99.4543
1520.5962,99.5484
1521.5604,99.6481
1522.5247,99.7302
1523.4889,99.7811
1524.4531,99.8007
1525.4174,99.7954
1526.3816,99.7731
1527.3458,99.7408
1528.3101,99.7021
1529.2743,99.6586
1530.2385,99.6155
1531.2028,99.5834
1532.1670,99.5704
1533.1312,99.5871
1534.0955,99.5875
1535.0597,99.5593
1536.0239,99.5069
1536.9882,99.4566
1537.9524,99.4689
1538.9166,99.6289
1539.8809,99.9377
1540.8451,100.172
1541.8093,100.134
1542.7736,99.9536
1543.7378,99.7974
1544.7020,99.7011
1545.6663,99.6476
1546.6305,99.6182
1547.5947,99.6001
1548.5590,99.5851
1549.5232,99.5688
1550.4874,99.5499
1551.4517,99.5278
1552.4159,99.5004
1553.3801,99.4642
1554.3444,99.4204
1555.3086,99.3885
1556.2728,99.4154
1557.2371,99.5344
1558.2013,99.6408
1559.1655,99.5669
1560.1298,99.4194
1561.0940,99.3613
1562.0582,99.3825
1563.0225,99.4175
1563.9867,99.4279
1564.9509,99.4077
1565.9152,99.3703
1566.8794,99.332
1567.8436,99.2968
1568.8079,99.2521
1569.7721,99.1875
1570.7363,99.1102
1571.7006,99.0321
1572.6648,98.9576
1573.6290,98.8899
1574.5933,98.8342
1575.5575,98.7819
1576.5217,98.7089
1577.4860,98.6126
1578.4502,98.5161
1579.4144,98.427
1580.3787,98.3328
1581.3429,98.2228
1582.3071,98.0982
1583.2714,97.9685
1584.2356,97.8426
1585.1998,97.7243
1586.1641,97.6128
1587.1283,97.5077
1588.0925,97.4117
1589.0568,97.3302
1590.0210,97.268
1590.9852,97.2279
1591.9495,97.2102
1592.9137,97.2136
1593.8779,97.235
1594.8422,97.2693
1595.8064,97.3114
1596.7706,97.3584
1597.7349,97.4103
1598.6991,97.4683
1599.6633,97.5327
1600.6276,97.6007
1601.5918,97.6671
1602.5560,97.7268
1603.5203,97.7775
1604.4845,97.8208
1605.4487,97.8604
1606.4130,97.8988
1607.3772,97.9356
1608.3414,97.9664
1609.3057,97.9851
1610.2699,97.988
1611.2341,97.975
1612.1984,97.9487
1613.1626,97.9184
1614.1268,97.9021
1615.0911,97.9161
1616.0553,97.9528
1617.0195,97.9851
1617.9838,98.0035
1618.9480,98.0178
1619.9122,98.0342
1620.8765,98.054
1621.8407,98.0793
1622.8049,98.1076
1623.7692,98.1282
1624.7334,98.1329
1625.6976,98.1258
1626.6619,98.1171
1627.6261,98.1136
1628.5903,98.114
1629.5546,98.1096
1630.5188,98.0891
1631.4830,98.0473
1632.4473,97.996
1633.4115,97.969
1634.3757,98.0008
1635.3400,98.0745
1636.3042,98.1191
1637.2684,98.1124
1638.2327,98.0945
1639.1969,98.0861
1640.1611,98.0776
1641.1254,98.0547
1642.0896,98.0135
1643.0538,97.9677
1644.0181,97.9493
1644.9823,97.9905
1645.9465,98.0788
1646.9108,98.1432
1647.8750,98.132
1648.8392,98.0566
1649.8035,97.9529
1650.7677,97.8714
1651.7319,97.8801
1652.6962,97.9901
1653.6604,98.0852
1654.6246,98.1124
1655.5889,98.1442
1656.5531,98.1985
1657.5173,98.245
1658.4816,98.2682
1659.4458,98.2791
1660.4100,98.3005
1661.3743,98.342
1662.3385,98.3888
1663.3027,98.4209
1664.2670,98.4346
1665.2312,98.439
1666.1954,98.4503
1667.1597,98.4921
1668.1239,98.5821
1669.0881,98.705
1670.0524,98.8096
1671.0166,98.8579
1671.9808,98.8578
1672.9451,98.8388
1673.9093,98.8266
1674.8735,98.8369
1675.8378,98.8723
1676.8020,98.9239
1677.7662,98.9746
1678.7305,99.0058
1679.6947,99.008
1680.6589,98.9932
1681.6232,98.996
1682.5874,99.0462
1683.5516,99.117
1684.5159,99.15
1685.4801,99.1522
1686.4443,99.1655
1687.4086,99.1941
1688.3728,99.2174
1689.3370,99.2178
1690.3013,99.189
1691.2655,99.1352
1692.2297,99.0686
1693.1940,99.0075
1694.1582,98.9724
1695.1224,98.9765
1696.0867,99.0123
1697.0509,99.0464
1698.0151,99.0389
1698.9794,98.9809
1699.9436,98.909
1700.9078,98.8709
1701.8721,98.8823
1702.8363,98.9223
1703.8005,98.9573
1704.7648,98.9605
1705.7290,98.921
1706.6932,98.8458
1707.6575,98.7536
1708.6217,98.6604
1709.5859,98.5699
1710.5502,98.4769
1711.5144,98.378
1712.4786,98.278
1713.4429,98.1905
1714.4071,98.1286
1715.3713,98.0822
1716.3356,97.9985
1717.2998,97.8342
1718.2640,97.6364
1719.2283,97.4816
1720.1925,97.3838
1721.1567,97.3124
1722.1210,97.237
1723.0852,97.1449
1724.0494,97.0399
1725.0137,96.9339
1725.9779,96.8382
1726.9421,96.7567
1727.9064,96.6856
1728.8706,96.6188
1729.8348,96.5551
1730.7991,96.5047
1731.7633,96.4837
1732.7275,96.4956
1733.6918,96.5219
1734.6560,96.5501
1735.6202,96.5883
1736.5845,96.6418
1737.5487,96.705
1738.5129,96.7744
1739.4772,96.851
1740.4414,96.9344
1741.4056,97.0194
1742.3699,97.1011
1743.3341,97.1788
1744.2983,97.2547
1745.2626,97.3314
1746.2268,97.4133
1747.1910,97.5066
1748.1553,97.6132
1749.1195,97.7227
1750.0837,97.819
1751.0480,97.8985
1752.0122,97.972
1752.9764,98.0501
1753.9407,98.1376
1754.9049,98.2349
1755.8691,98.3391
1756.8334,98.4432
1757.7976,98.5402
1758.7618,98.6292
1759.7261,98.717
1760.6903,98.8108
1761.6545,98.9094
1762.6188,99.0032
1763.5830,99.0824
1764.5472,99.1442
1765.5115,99.1927
1766.4757,99.2366
1767.4399,99.2863
1768.4042,99.3521
1769.3684,99.4413
1770.3326,99.5519
1771.2969,99.6652
1772.2611,99.7514
1773.2253,99.7957
1774.1896,99.8101
1775.1538,99.8137
1776.1180,99.8172
1777.0823,99.8247
1778.0465,99.8389
1779.0107,99.8593
1779.9750,99.88
1780.9392,99.8928
1781.9034,99.8947
1782.8677,99.8929
1783.8319,99.8933
1784.7961,99.8984
1785.7604,99.9055
1786.7246,99.908
1787.6888,99.9015
1788.6531,99.8901
1789.6173,99.8881
1790.5815,99.9104
1791.5458,99.9555
1792.5100,100.001
1793.4742,100.029
1794.4385,100.04
1795.4027,100.04
1796.3669,100.034
1797.3312,100.026
1798.2954,100.022
1799.2596,100.024
1800.2239,100.032
1801.1881,100.038
1802.1523,100.04
1803.1166,100.038
1804.0808,100.034
1805.0450,100.028
1806.0093,100.021
1806.9735,100.018
1807.9377,100.02
1808.9020,100.031
1809.8662,100.045
1810.8304,100.058
1811.7947,100.064
1812.7589,100.061
1813.7231,100.054
1814.6874,100.045
1815.6516,100.038
1816.6158,100.034
1817.5801,100.032
1818.5443,100.03
1819.5085,100.025
1820.4728,100.015
1821.4370,100.005
1822.4012,99.998
1823.3655,99.9962
1824.3297,100
1825.2939,100.009
1826.2582,100.022
1827.2224,100.041
1828.1866,100.065
1829.1509,100.086
1830.1151,100.095
1831.0793,100.091
1832.0436,100.081
1833.0078,100.072
1833.9720,100.068
1834.9363,100.071
1835.9005,100.077
1836.8647,100.081
1837.8290,100.074
1838.7932,100.052
1839.7574,100.018
1840.7217,99.9831
1841.6859,99.9623
1842.6501,99.9701
1843.6144,100.005
1844.5786,100.048
1845.5428,100.079
1846.5071,100.093
1847.4713,100.094
1848.4355,100.088
1849.3998,100.078
1850.3640,100.067
1851.3282,100.059
1852.2925,100.053
1853.2567,100.049
1854.2209,100.047
1855.1852,100.046
1856.1494,100.045
1857.1136,100.044
1858.0779,100.043
1859.0421,100.041
1860.0063,100.039
1860.9706,100.037
1861.9348,100.034
1862.8990,100.031
1863.8633,100.028
1864.8275,100.03
1865.7917,100.043
1866.7560,100.069
1867.7202,100.1
1868.6844,100.122
1869.6487,100.125
1870.6129,100.116
1871.5771,100.104
1872.5414,100.095
1873.5056,100.088
1874.4698,100.082
1875.4341,100.078
1876.3983,100.074
1877.3625,100.07
1878.3268,100.067
1879.2910,100.065
1880.2552,100.066
1881.2195,100.07
1882.1837,100.074
1883.1479,100.076
1884.1122,100.072
1885.0764,100.065
1886.0406,100.058
1887.0049,100.058
1887.9691,100.067
1888.9333,100.081
1889.8976,100.094
1890.8618,100.103
1891.8260,100.106
1892.7903,100.107
1893.7545,100.107
1894.7188,100.108
1895.6830,100.108
1896.6472,100.106
1897.6115,100.101
1898.5757,100.094
1899.5399,100.088
1900.5042,100.085
1901.4684,100.084
1902.4326,100.085
1903.3969,100.087
1904.3611,100.09
1905.3253,100.094
1906.2896,100.103
1907.2538,100.115
1908.2180,100.129
1909.1823,100.141
1910.1465,100.146
1911.1107,100.142
1912.0750,100.131
1913.0392,100.115
1914.0034,100.099
1914.9677,100.088
1915.9319,100.084
1916.8961,100.086
1917.8604,100.092
1918.8246,100.1
1919.7888,100.109
1920.7531,100.122
1921.7173,100.138
1922.6815,100.153
1923.6458,100.161
1924.6100,100.161
1925.5742,100.151
1926.5385,100.137
1927.5027,100.123
1928.4669,100.113
1929.4312,100.108
1930.3954,100.107
1931.3596,100.109
1932.3239,100.113
1933.2881,100.117
1934.2523,100.121
1935.2166,100.124
1936.1808,100.122
1937.1450,100.115
1938.1093,100.106
1939.0735,100.098
1940.0377,100.097
1941.0020,100.104
1941.9662,100.118
1942.9304,100.132
1943.8947,100.141
1944.8589,100.142
1945.8231,100.138
1946.7874,100.131
1947.7516,100.123
1948.7158,100.115
1949.6801,100.108
1950.6443,100.101
1951.6085,100.098
1952.5728,100.097
1953.5370,100.098
1954.5012,100.1
1955.4655,100.1
1956.4297,100.098
1957.3939,100.095
1958.3582,100.093
1959.3224,100.092
1960.2866,100.091
1961.2509,100.09
1962.2151,100.09
1963.1793,100.091
1964.1436,100.096
1965.1078,100.104
1966.0720,100.113
1967.0363,100.119
1968.0005,100.117
1968.9647,100.109
1969.9290,100.098
1970.8932,100.088
1971.8574,100.083
1972.8217,100.082
1973.7859,100.084
1974.7501,100.085
1975.7144,100.086
1976.6786,100.085
1977.6428,100.084
1978.6071,100.084
1979.5713,100.085
1980.5355,100.087
1981.4998,100.087
1982.4640,100.086
1983.4282,100.085
1984.3925,100.085
1985.3567,100.087
1986.3209,100.089
1987.2852,100.091
1988.2494,100.094
1989.2136,100.097
1990.1779,100.1
1991.1421,100.102
1992.1063,100.103
1993.0706,100.101
1994.0348,100.096
1994.9990,100.092
1995.9633,100.089
1996.9275,100.088
1997.8917,100.089
1998.8560,100.091
1999.8202,100.092
2000.7844,100.092
2001.7487,100.091
2002.7129,100.089
2003.6771,100.086
2004.6414,100.082
2005.6056,100.078
2006.5698,100.074
2007.5341,100.07
2008.4983,100.066
2009.4625,100.06
2010.4268,100.053
2011.3910,100.047
2012.3552,100.043
2013.3195,100.043
2014.2837,100.047
2015.2479,100.057
2016.2122,100.067
2017.1764,100.074
2018.1406,100.076
2019.1049,100.071
2020.0691,100.063
2021.0333,100.053
2021.9976,100.046
2022.9618,100.042
2023.9260,100.042
2024.8903,100.043
2025.8545,100.044
2026.8187,100.042
2027.7830,100.038
2028.7472,100.033
2029.7114,100.03
2030.6757,100.028
2031.6399,100.028
2032.6041,100.029
2033.5684,100.03
2034.5326,100.031
2035.4968,100.031
2036.4611,100.032
2037.4253,100.035
2038.3895,100.04
2039.3538,100.044
2040.3180,100.047
2041.2822,100.046
2042.2465,100.041
2043.2107,100.035
2044.1749,100.027
2045.1392,100.021
2046.1034,100.017
2047.0676,100.014
2048.0320,100.011
2048.9961,100.01
2049.9604,100.01
2050.9246,100.013
2051.8889,100.018
2052.8530,100.024
2053.8174,100.027
2054.7815,100.027
2055.7458,100.023
2056.7100,100.017
2057.6743,100.011
2058.6384,100.007
2059.6028,100.007
2060.5669,100.01
2061.5313,100.016
2062.4954,100.022
2063.4597,100.028
2064.4238,100.03
2065.3882,100.029
2066.3523,100.025
2067.3167,100.018
2068.2808,100.01
2069.2451,100.004
2070.2092,99.9998
2071.1736,99.9982
2072.1377,99.9987
2073.1021,100.001
2074.0662,100.004
2075.0305,100.007
2075.9946,100.01
2076.9590,100.011
2077.9231,100.009
2078.8875,100.005
2079.8516,99.999
2080.8159,99.9931
2081.7800,99.9894
2082.7444,99.9896
2083.7085,99.9941
2084.6729,100.002
2085.6370,100.01
2086.6013,100.018
2087.5654,100.021
2088.5298,100.021
2089.4939,100.017
2090.4583,100.012
2091.4224,100.007
2092.3867,100.003
2093.3508,100.002
2094.3152,100.003
2095.2793,100.004
2096.2437,100.003
2097.2078,100
2098.1721,99.9952
2099.1362,99.9902
2100.1006,99.9878
2101.0647,99.9889
2102.0291,99.9938
2102.9932,100
2103.9575,100.006
2104.9216,100.008
2105.8860,100.006
2106.8501,100.002
2107.8145,99.9987
2108.7786,99.9975
2109.7429,99.9989
2110.7070,100.002
2111.6714,100.004
2112.6355,100.005
2113.5999,100.003
2114.5640,100
2115.5283,99.9964
2116.4924,99.9927
2117.4568,99.9897
2118.4209,99.9877
2119.3853,99.9865
2120.3494,99.986
2121.3137,99.9858
2122.2778,99.9855
2123.2422,99.9851
2124.2063,99.985
2125.1707,99.9855
2126.1348,99.9869
2127.0991,99.9887
2128.0632,99.9901
2129.0276,99.9901
2129.9917,99.9886
2130.9561,99.9864
2131.9202,99.985
2132.8845,99.9859
2133.8486,99.9896
2134.8130,99.9954
2135.7771,100.001
2136.7415,100.004
2137.7056,100.004
2138.6699,100
2139.6340,99.9944
2140.5984,99.9887
2141.5625,99.9844
2142.5269,99.9819
2143.4910,99.9809
2144.4553,99.9809
2145.4194,99.9819
2146.3838,99.9845
2147.3479,99.9887
2148.3123,99.9942
2149.2764,99.9996
2150.2407,100.004
2151.2048,100.006
2152.1692,100.006
2153.1333,100.005
2154.0977,100.004
2155.0618,100.003
2156.0261,100.003
2156.9902,100.004
2157.9546,100.007
2158.9187,100.011
2159.8831,100.018
2160.8472,100.025
2161.8115,100.032
2162.7756,100.036
2163.7400,100.038
2164.7041,100.038
2165.6685,100.038
2166.6326,100.038
2167.5969,100.039
2168.5610,100.041
2169.5254,100.042
2170.4895,100.042
2171.4539,100.04
2172.4180,100.039
2173.3823,100.038
2174.3464,100.038
2175.3108,100.04
2176.2749,100.042
2177.2393,100.045
2178.2034,100.047
2179.1677,100.049
2180.1318,100.051
2181.0962,100.055
2182.0603,100.059
2183.0247,100.064
2183.9888,100.068
2184.9531,100.07
2185.9172,100.067
2186.8816,100.062
2187.8457,100.056
2188.8101,100.053
2189.7742,100.054
2190.7385,100.061
2191.7026,100.071
2192.6670,100.081
2193.6311,100.088
2194.5955,100.09
2195.5596,100.088
2196.5239,100.083
2197.4880,100.078
2198.4524,100.076
2199.4165,100.076
2200.3809,100.078
2201.3450,100.081
2202.3093,100.084
2203.2734,100.087
2204.2378,100.089
2205.2019,100.091
2206.1663,100.092
2207.1304,100.092
2208.0947,100.092
2209.0588,100.093
2210.0232,100.096
2210.9873,100.1
2211.9517,100.103
2212.9158,100.104
2213.8801,100.101
2214.8442,100.095
2215.8086,100.088
2216.7727,100.085
2217.7371,100.086
2218.7012,100.093
2219.6655,100.102
2220.6296,100.112
2221.5940,100.117
2222.5581,100.117
2223.5225,100.111
2224.4866,100.102
2225.4509,100.094
2226.4150,100.089
2227.3794,100.088
2228.3435,100.089
2229.3079,100.09
2230.2720,100.09
2231.2363,100.089
2232.2004,100.089
2233.1648,100.091
2234.1289,100.095
2235.0933,100.099
2236.0574,100.102
2237.0217,100.102
2237.9858,100.099
2238.9502,100.094
2239.9143,100.088
2240.8787,100.082
2241.8428,100.076
2242.8071,100.073
2243.7712,100.071
2244.7356,100.071
2245.6997,100.073
2246.6641,100.075
2247.6282,100.078
2248.5925,100.079
2249.5566,100.077
2250.5210,100.071
2251.4851,100.062
2252.4495,100.051
2253.4136,100.04
2254.3779,100.029
2255.3420,100.022
2256.3064,100.019
2257.2705,100.018
2258.2349,100.019
2259.1990,100.019
2260.1633,100.019
2261.1274,100.017
2262.0918,100.015
2263.0559,100.011
2264.0203,100.007
2264.9844,100.002
2265.9487,99.9968
2266.9128,99.9916
2267.8772,99.9878
2268.8413,99.9859
2269.8057,99.9852
2270.7698,99.9847
2271.7341,99.9833
2272.6982,99.9806
2273.6626,99.967
2274.6267,99.9553
2275.5911,99.9461
2276.5552,99.9387
2277.5195,99.9315
2278.4836,99.9227
2279.4480,99.9121
2280.4121,99.8999
2281.3765,99.8862
2282.3406,99.8702
2283.3049,99.8497
2284.2690,99.8221
2285.2334,99.7865
2286.1975,99.7438
2287.1619,99.697
2288.1260,99.6498
2289.0903,99.6051
2290.0544,99.5638
2291.0188,99.5248
2291.9829,99.4863
2292.9473,99.4465
2293.9114,99.4045
2294.8757,99.3595
2295.8398,99.3112
2296.8042,99.2588
2297.7683,99.202
2298.7327,99.1406
2299.6968,99.0752
2300.6611,99.0064
2301.6252,98.9348
2302.5896,98.8606
2303.5537,98.7833
2304.5181,98.7028
2305.4822,98.619
2306.4465,98.5319
2307.4106,98.4414
2308.3750,98.3475
2309.3391,98.252
2310.3035,98.1584
2311.2676,98.0713
2312.2319,97.9933
2313.1960,97.9233
2314.1604,97.8553
2315.1245,97.7819
2316.0889,97.698
2317.0530,97.6046
2318.0173,97.5087
2318.9814,97.4206
2319.9458,97.3492
2320.9099,97.2984
2321.8743,97.2673
2322.8384,97.2533
2323.8027,97.255
2324.7668,97.2717
2325.7312,97.3014
2326.6953,97.3388
2327.6597,97.3763
2328.6238,97.4068
2329.5881,97.4281
2330.5522,97.4445
2331.5166,97.4636
2332.4807,97.4909
2333.4451,97.526
2334.4092,97.5642
2335.3735,97.6007
2336.3376,97.6336
2337.3020,97.6635
2338.2661,97.6917
2339.2305,97.7191
2340.1946,97.744
2341.1589,97.7559
2342.1230,97.7306
2343.0874,97.6438
2344.0515,97.5116
2345.0159,97.3955
2345.9800,97.3388
2346.9443,97.3252
2347.9084,97.3057
2348.8728,97.2441
2349.8369,97.144
2350.8013,97.0549
2351.7654,97.0606
2352.7297,97.2417
2353.6938,97.6175
2354.6582,98.1177
2355.6223,98.6359
2356.5867,99.1105
2357.5508,99.532
2358.5151,99.8929
2359.4792,100.161
2360.4436,100.297
2361.4077,100.281
2362.3721,100.108
2363.3362,99.7875
2364.3005,99.3714
2365.2646,98.9164
2366.2290,98.473
2367.1931,98.0848
2368.1575,97.7669
2369.1216,97.5183
2370.0859,97.3364
2371.0500,97.2228
2372.0144,97.1801
2372.9785,97.2063
2373.9429,97.2929
2374.9070,97.4264
2375.8713,97.5924
2376.8354,97.7784
2377.7998,97.9751
2378.7639,98.1757
2379.7283,98.3737
2380.6924,98.5627
2381.6567,98.7363
2382.6208,98.8893
2383.5852,99.019
2384.5493,99.1259
2385.5137,99.2127
2386.4778,99.2833
2387.4421,99.3413
2388.4063,99.3893
2389.3706,99.4289
2390.3347,99.4609
2391.2991,99.4869
2392.2632,99.509
2393.2275,99.5299
2394.1917,99.5519
2395.1560,99.5762
2396.1201,99.6021
2397.0845,99.6273
2398.0486,99.6497
2399.0129,99.6681
2399.9771,99.6835
2400.9414,99.699
2401.9055,99.7176
2402.8699,99.7338
2403.8340,99.7398
2404.7983,99.7461
2405.7625,99.7495
2406.7268,99.7488
2407.6909,99.7449
2408.6553,99.7403
2409.6194,99.7368
2410.5837,99.7349
2411.5479,99.7337
2412.5122,99.7319
2413.4763,99.7288
2414.4407,99.7248
2415.4048,99.7202
2416.3691,99.7157
2417.3333,99.7118
2418.2976,99.7086
2419.2617,99.7066
2420.2261,99.7061
2421.1902,99.7065
2422.1545,99.7069
2423.1187,99.706
2424.0830,99.703
2425.0471,99.6985
2426.0115,99.6939
2426.9756,99.691
2427.9399,99.6908
2428.9041,99.693
2429.8684,99.696
2430.8325,99.6978
2431.7969,99.6971
2432.7610,99.6939
2433.7253,99.6896
2434.6895,99.6861
2435.6538,99.6846
2436.6179,99.6851
2437.5823,99.6863
2438.5464,99.6868
2439.5107,99.686
2440.4749,99.6842
2441.4392,99.6828
2442.4033,99.6828
2443.3677,99.6844
2444.3318,99.6868
2445.2961,99.6887
2446.2603,99.6894
2447.2246,99.6887
2448.1887,99.6872
2449.1531,99.6857
2450.1172,99.6842
2451.0815,99.6824
2452.0457,99.6796
2453.0100,99.6752
2453.9741,99.6692
2454.9385,99.6623
2455.9026,99.6554
2456.8669,99.6495
2457.8311,99.6455
2458.7954,99.644
2459.7595,99.6452
2460.7239,99.6489
2461.6880,99.654
2462.6523,99.6588
2463.6165,99.6616
2464.5808,99.6616
2465.5449,99.659
2466.5093,99.6557
2467.4734,99.6536
2468.4377,99.6541
2469.4019,99.6568
2470.3662,99.6599
2471.3303,99.6611
2472.2947,99.659
2473.2588,99.6536
2474.2231,99.6467
2475.1873,99.6411
2476.1516,99.6395
2477.1157,99.6429
2478.0801,99.6507
2479.0442,99.6601
2480.0085,99.6682
2480.9727,99.6726
2481.9370,99.6732
2482.9011,99.6717
2483.8655,99.6705
2484.8296,99.6714
2485.7939,99.6742
2486.7581,99.6772
2487.7224,99.6782
2488.6865,99.6754
2489.6509,99.6691
2490.6150,99.6608
2491.5793,99.6529
2492.5435,99.6476
2493.5078,99.6459
2494.4719,99.6474
2495.4363,99.6507
2496.4004,99.6535
2497.3647,99.6542
2498.3289,99.6526
2499.2932,99.6495
2500.2573,99.6468
2501.2217,99.6454
2502.1858,99.6451
2503.1501,99.6444
2504.1143,99.642
2505.0786,99.6382
2506.0427,99.6346
2507.0071,99.6336
2507.9712,99.6363
2508.9355,99.6419
2509.8997,99.6475
2510.8640,99.65
2511.8281,99.6482
2512.7925,99.643
2513.7566,99.6367
2514.7209,99.6315
2515.6851,99.629
2516.6494,99.6294
2517.6135,99.6327
2518.5779,99.639
2519.5420,99.6474
2520.5063,99.6561
2521.4705,99.6623
2522.4348,99.6633
2523.3989,99.658
2524.3633,99.6483
2525.3274,99.6383
2526.2917,99.6324
2527.2559,99.6328
2528.2202,99.6387
2529.1843,99.6471
2530.1487,99.6547
2531.1128,99.6599
2532.0771,99.6628
2533.0413,99.6649
2534.0056,99.6672
2534.9697,99.6697
2535.9341,99.6715
2536.8982,99.6718
2537.8625,99.6708
2538.8267,99.6693
2539.7910,99.6689
2540.7551,99.6702
2541.7195,99.6727
2542.6836,99.6751
2543.6479,99.6761
2544.6121,99.675
2545.5764,99.6723
2546.5405,99.6692
2547.5049,99.6672
2548.4690,99.6665
2549.4333,99.6666
2550.3975,99.6664
2551.3618,99.6647
2552.3259,99.6615
2553.2903,99.658
2554.2544,99.6556
2555.2188,99.6554
2556.1829,99.657
2557.1472,99.6596
2558.1113,99.6615
2559.0757,99.6622
2560.0398,99.6618
2561.0042,99.6607
2561.9683,99.6597
2562.9326,99.6587
2563.8967,99.6572
2564.8611,99.6548
2565.8252,99.6522
2566.7896,99.6504
2567.7537,99.6506
2568.7180,99.6534
2569.6821,99.6582
2570.6465,99.6632
2571.6106,99.6667
2572.5750,99.6673
2573.5391,99.6652
2574.5034,99.6617
2575.4675,99.6587
2576.4319,99.6574
2577.3960,99.6583
2578.3604,99.6605
2579.3245,99.663
2580.2888,99.6647
2581.2529,99.6653
2582.2173,99.6651
2583.1814,99.6643
2584.1458,99.663
2585.1099,99.6609
2586.0742,99.6577
2587.0383,99.6534
2588.0027,99.649
2588.9668,99.646
2589.9312,99.6455
2590.8953,99.648
2591.8596,99.6524
2592.8237,99.6568
2593.7881,99.6594
2594.7522,99.6591
2595.7166,99.6566
2596.6807,99.6535
2597.6450,99.6514
2598.6091,99.651
2599.5735,99.6517
2600.5376,99.6523
2601.5020,99.6517
2602.4661,99.65
2603.4304,99.6481
2604.3945,99.6469
2605.3589,99.6465
2606.3230,99.6462
2607.2874,99.6451
2608.2515,99.6431
2609.2158,99.6409
2610.1799,99.6399
2611.1443,99.6401
2612.1084,99.6405
2613.0728,99.6393
2614.0369,99.6352
2615.0012,99.6288
2615.9653,99.6222
2616.9297,99.6181
2617.8938,99.6178
2618.8582,99.6208
2619.8223,99.6251
2620.7866,99.6284
2621.7507,99.6294
2622.7151,99.6277
2623.6792,99.6239
2624.6436,99.6186
2625.6077,99.613
2626.5720,99.608
2627.5361,99.6044
2628.5005,99.6026
2629.4646,99.6018
2630.4290,99.601
2631.3931,99.5997
2632.3574,99.598
2633.3215,99.5969
2634.2859,99.5971
2635.2500,99.5981
2636.2144,99.5983
2637.1785,99.5964
2638.1428,99.5926
2639.1069,99.589
2640.0713,99.588
2641.0354,99.5908
2641.9998,99.5962
2642.9639,99.6012
2643.9282,99.6029
2644.8923,99.6
2645.8567,99.594
2646.8208,99.5872
2647.7852,99.5815
2648.7493,99.5774
2649.7136,99.5739
2650.6777,99.5698
2651.6421,99.5646
2652.6062,99.559
2653.5706,99.5545
2654.5347,99.552
2655.4990,99.5515
2656.4631,99.552
2657.4275,99.5521
2658.3916,99.551
2659.3560,99.5486
2660.3201,99.5455
2661.2844,99.5428
2662.2485,99.5407
2663.2129,99.5387
2664.1770,99.536
2665.1414,99.5322
2666.1055,99.5279
2667.0698,99.5245
2668.0339,99.5232
2668.9983,99.5242
2669.9624,99.526
2670.9268,99.5262
2671.8909,99.5229
2672.8552,99.5163
2673.8193,99.5085
2674.7837,99.5021
2675.7478,99.499
2676.7122,99.4993
2677.6763,99.5016
2678.6406,99.504
2679.6047,99.5054
2680.5691,99.5053
2681.5332,99.5033
2682.4976,99.4986
2683.4617,99.4903
2684.4260,99.4785
2685.3901,99.4649
2686.3545,99.4531
2687.3186,99.4465
2688.2830,99.4469
2689.2471,99.4533
2690.2114,99.4622
2691.1755,99.4696
2692.1399,99.4722
2693.1040,99.4693
2694.0684,99.4615
2695.0325,99.4511
2695.9968,99.4401
2696.9609,99.4303
2697.9253,99.4226
2698.8894,99.417
2699.8538,99.4129
2700.8179,99.4099
2701.7822,99.4077
2702.7463,99.4068
2703.7107,99.4077
2704.6748,99.41
2705.6392,99.4125
2706.6033,99.4128
2707.5676,99.4095
2708.5317,99.4027
2709.4961,99.3943
2710.4602,99.3873
2711.4246,99.3838
2712.3887,99.3838
2713.3530,99.3854
2714.3171,99.3866
2715.2815,99.3859
2716.2456,99.3834
2717.2100,99.3802
2718.1741,99.3775
2719.1384,99.3753
2720.1025,99.373
2721.0669,99.37
2722.0310,99.3658
2722.9954,99.3605
2723.9595,99.3548
2724.9238,99.3493
2725.8879,99.3451
2726.8523,99.3429
2727.8164,99.3428
2728.7808,99.3441
2729.7449,99.3455
2730.7092,99.3453
2731.6733,99.3427
2732.6377,99.338
2733.6018,99.3326
2734.5662,99.3281
2735.5303,99.3259
2736.4946,99.3263
2737.4587,99.3286
2738.4231,99.3315
2739.3872,99.3332
2740.3516,99.3326
2741.3157,99.3291
2742.2800,99.3239
2743.2441,99.319
2744.2085,99.3159
2745.1726,99.3151
2746.1370,99.3152
2747.1011,99.3139
2748.0654,99.3097
2749.0295,99.3035
2749.9939,99.2986
2750.9580,99.2985
2751.9224,99.3048
2752.8865,99.3154
2753.8508,99.3256
2754.8149,99.3302
2755.7793,99.3265
2756.7434,99.3154
2757.7078,99.3009
2758.6719,99.288
2759.6362,99.2804
2760.6003,99.2794
2761.5647,99.2836
2762.5288,99.2904
2763.4932,99.2969
2764.4573,99.3014
2765.4216,99.3031
2766.3857,99.3027
2767.3501,99.3012
2768.3142,99.2996
2769.2786,99.2977
2770.2427,99.2946
2771.2070,99.2889
2772.1711,99.2796
2773.1355,99.2673
2774.0996,99.2542
2775.0640,99.243
2776.0281,99.2359
2776.9924,99.2336
2777.9565,99.2348
2778.9209,99.2375
2779.8850,99.24
2780.8494,99.2416
2781.8135,99.2428
2782.7778,99.2444
2783.7419,99.2467
2784.7063,99.2489
2785.6704,99.249
2786.6348,99.2451
2787.5989,99.2363
2788.5632,99.223
2789.5273,99.2072
2790.4917,99.1921
2791.4558,99.1805
2792.4202,99.1743
2793.3843,99.1739
2794.3486,99.1781
2795.3127,99.1841
2796.2771,99.1889
2797.2412,99.1897
2798.2056,99.1851
2799.1697,99.1756
2800.1340,99.1634
2801.0981,99.1514
2802.0625,99.1417
2803.0266,99.1355
2803.9910,99.1321
2804.9551,99.1297
2805.9194,99.1267
2806.8835,99.1222
2807.8479,99.116
2808.8120,99.109
2809.7764,99.1017
2810.7405,99.0946
2811.7048,99.0882
2812.6689,99.0828
2813.6333,99.0782
2814.5974,99.0739
2815.5618,99.0684
2816.5259,99.0603
2817.4902,99.0487
2818.4543,99.034
2819.4187,99.0181
2820.3828,99.0035
2821.3472,98.9923
2822.3113,98.9852
2823.2756,98.9811
2824.2397,98.978
2825.2041,98.9732
2826.1682,98.9647
2827.1326,98.9518
2828.0967,98.9353
2829.0610,98.9171
2830.0251,98.8995
2830.9895,98.884
2831.9536,98.8711
2832.9180,98.8605
2833.8821,98.8522
2834.8464,98.8469
2835.8105,98.8468
2836.7749,98.8538
2837.7390,98.8686
2838.7034,98.8904
2839.6675,98.917
2840.6318,98.9466
2841.5959,98.9795
2842.5603,99.0179
2843.5244,99.0658
2844.4888,99.1271
2845.4529,99.2036
2846.4172,99.2936
2847.3813,99.3915
2848.3457,99.4885
2849.3098,99.5746
2850.2742,99.6414
2851.2383,99.6843
2852.2026,99.7034
2853.1667,99.7015
2854.1311,99.6828
2855.0952,99.6416
2856.0596,99.5877
2857.0237,99.5249
2857.9880,99.4577
2858.9521,99.3919
2859.9165,99.333
2860.8806,99.284
2861.8450,99.2447
2862.8091,99.2119
2863.7734,99.1825
2864.7375,99.1547
2865.7019,99.1294
2866.6660,99.1085
2867.6304,99.0926
2868.5945,99.0805
2869.5588,99.0685
2870.5229,99.0523
2871.4873,99.0295
2872.4514,99.0004
2873.4158,98.9687
2874.3799,98.9395
2875.3442,98.9176
2876.3083,98.9058
2877.2727,98.9047
2878.2368,98.913
2879.2012,98.9279
2880.1653,98.9458
2881.1296,98.9627
2882.0938,98.9755
2883.0581,98.9826
2884.0222,98.9846
2884.9866,98.9844
2885.9507,98.9857
2886.9150,98.9919
2887.8792,99.0047
2888.8435,99.0234
2889.8076,99.0458
2890.7720,99.0681
2891.7361,99.087
2892.7004,99.1011
2893.6646,99.1135
2894.6289,99.1312
2895.5930,99.1633
2896.5574,99.2153
2897.5215,99.285
2898.4858,99.3608
2899.4500,99.4263
2900.4143,99.4673
2901.3784,99.4792
2902.3428,99.4689
2903.3069,99.4508
2904.2712,99.4396
2905.2354,99.4449
2906.1997,99.4692
2907.1638,99.51
2908.1282,99.5626
2909.0923,99.6224
2910.0566,99.685
2911.0208,99.7478
2911.9851,99.8095
2912.9492,99.8711
2913.9136,99.935
2914.8777,100.003
2915.8420,100.075
2916.8062,100.147
2917.7705,100.214
2918.7346,100.272
2919.6990,100.317
2920.6631,100.347
2921.6274,100.361
2922.5916,100.362
2923.5559,100.351
2924.5200,100.33
2925.4844,100.299
2926.4485,100.259
2927.4128,100.208
2928.3770,100.146
2929.3413,100.074
2930.3054,99.9971
2931.2698,99.9199
2932.2339,99.8477
2933.1982,99.7831
2934.1624,99.7257
2935.1267,99.6732
2936.0908,99.6236
2937.0552,99.5762
2938.0193,99.5319
2938.9836,99.4926
2939.9478,99.4605
2940.9121,99.437
2941.8762,99.4227
2942.8406,99.4168
2943.8047,99.4179
2944.7690,99.4243
2945.7332,99.4353
2946.6975,99.4515
2947.6616,99.4747
2948.6260,99.5072
2949.5901,99.5502
2950.5544,99.6027
2951.5186,99.6614
2952.4829,99.7217
2953.4470,99.7793
2954.4114,99.8306
2955.3755,99.8744
2956.3398,99.9107
2957.3040,99.9403
2958.2683,99.964
2959.2324,99.9827
2960.1968,99.9977
2961.1609,100.01
2962.1252,100.023
2963.0894,100.036
2964.0537,100.049
2965.0178,100.061
2965.9822,100.069
2966.9463,100.069
2967.9106,100.063
2968.8748,100.052
2969.8391,100.036
2970.8032,100.019
2971.7676,99.9978
2972.7317,99.9729
2973.6960,99.9443
2974.6602,99.915
2975.6245,99.8893
2976.5886,99.8723
2977.5530,99.8682
2978.5171,99.8707
2979.4814,99.8762
2980.4456,99.883
2981.4099,99.8927
2982.3740,99.9098
2983.3384,99.9384
2984.3025,99.9786
2985.2668,100.024
2986.2310,100.062
2987.1953,100.079
2988.1594,100.066
2989.1238,100.022
2990.0879,99.9546
2991.0522,99.8783
2992.0164,99.8065
2992.9807,99.7476
2993.9448,99.7027
2994.9092,99.6674
2995.8733,99.6351
2996.8376,99.6009
2997.8018,99.5634
2998.7661,99.5242
2999.7302,99.4855
3000.6946,99.4486
3001.6587,99.4125
3002.6230,99.3745
3003.5872,99.3319
3004.5515,99.2834
3005.5156,99.2301
3006.4800,99.1751
3007.4441,99.1218
3008.4084,99.0726
3009.3726,99.0272
3010.3369,98.9839
3011.3010,98.9405
3012.2654,98.8959
3013.2295,98.8502
3014.1938,98.8043
3015.1580,98.7583
3016.1223,98.7121
3017.0864,98.6653
3018.0508,98.6186
3019.0149,98.5738
3019.9792,98.5326
3020.9434,98.4953
3021.9077,98.4605
3022.8718,98.4256
3023.8362,98.3893
3024.8003,98.3524
3025.7646,98.3182
3026.7288,98.29
3027.6931,98.2694
3028.6572,98.2543
3029.6216,98.24
3030.5857,98.2212
3031.5500,98.1942
3032.5142,98.1595
3033.4785,98.1206
3034.4426,98.0826
3035.4070,98.0495
3036.3711,98.0229
3037.3354,98.001
3038.2996,97.9809
3039.2639,97.9596
3040.2280,97.9357
3041.1924,97.9103
3042.1565,97.8857
3043.1208,97.8642
3044.0850,97.8469
3045.0493,97.8327
3046.0134,97.82
3046.9778,97.8067
3047.9419,97.7925
3048.9063,97.778
3049.8704,97.7646
3050.8347,97.7533
3051.7988,97.7434
3052.7632,97.7333
3053.7273,97.7215
3054.6917,97.7074
3055.6558,97.6919
3056.6201,97.6761
3057.5842,97.6608
3058.5486,97.6458
3059.5127,97.6312
3060.4771,97.6174
3061.4412,97.6062
3062.4055,97.5987
3063.3696,97.5949
3064.3340,97.592
3065.2981,97.5864
3066.2625,97.5755
3067.2266,97.5595
3068.1909,97.5412
3069.1550,97.5235
3070.1194,97.5079
3071.0835,97.494
3072.0479,97.4806
3073.0120,97.4674
3073.9763,97.4556
3074.9404,97.4468
3075.9048,97.4409
3076.8689,97.436
3077.8333,97.4294
3078.7974,97.4189
3079.7617,97.4049
3080.7258,97.3897
3081.6902,97.3758
3082.6543,97.3641
3083.6187,97.3539
3084.5828,97.343
3085.5471,97.3293
3086.5112,97.3115
3087.4756,97.29
3088.4397,97.2667
3089.4041,97.2448
3090.3682,97.2283
3091.3325,97.22
3092.2966,97.22
3093.2610,97.2254
3094.2251,97.2317
3095.1895,97.2347
3096.1536,97.2332
3097.1179,97.2288
3098.0820,97.2239
3099.0464,97.2189
3100.0105,97.2115
3100.9749,97.1975
3101.9390,97.1749
3102.9033,97.1456
3103.8674,97.1153
3104.8318,97.0909
3105.7959,97.0764
3106.7603,97.0709
3107.7244,97.0692
3108.6887,97.0651
3109.6528,97.0547
3110.6172,97.038
3111.5813,97.0186
3112.5457,97.0013
3113.5098,96.9889
3114.4741,96.9817
3115.4382,96.9777
3116.4026,96.9738
3117.3667,96.9678
3118.3311,96.9583
3119.2952,96.9451
3120.2595,96.9283
3121.2236,96.9082
3122.1880,96.8856
3123.1521,96.8615
3124.1165,96.8371
3125.0806,96.8134
3126.0449,96.7914
3127.0090,96.772
3127.9734,96.7563
3128.9375,96.7451
3129.9019,96.7384
3130.8660,96.7344
3131.8303,96.7297
3132.7944,96.7203
3133.7588,96.7036
3134.7229,96.6801
3135.6873,96.6527
3136.6514,96.6261
3137.6157,96.6041
3138.5798,96.5885
3139.5442,96.5788
3140.5083,96.5726
3141.4727,96.5663
3142.4368,96.5565
3143.4011,96.5409
3144.3652,96.5198
3145.3296,96.4957
3146.2937,96.4725
3147.2581,96.454
3148.2222,96.4415
3149.1865,96.4333
3150.1506,96.4255
3151.1150,96.4141
3152.0791,96.3973
3153.0435,96.3758
3154.0076,96.3526
3154.9719,96.331
3155.9360,96.3124
3156.9004,96.2958
3157.8645,96.2777
3158.8289,96.2544
3159.7930,96.2243
3160.7573,96.1902
3161.7214,96.1583
3162.6858,96.1359
3163.6499,96.1271
3164.6143,96.1305
3165.5784,96.1393
3166.5427,96.1447
3167.5068,96.1407
3168.4712,96.1265
3169.4353,96.0266
3170.3997,96.0043
3171.3638,95.9843
3172.3281,95.9671
3173.2922,95.9514
3174.2566,95.9358
3175.2207,95.9192
3176.1851,95.901
3177.1492,95.88
3178.1135,95.8558
3179.0776,95.8293
3180.0420,95.8036
3181.0061,95.7818
3181.9705,95.7654
3182.9346,95.7532
3183.8989,95.7418
3184.8630,95.7284
3185.8274,95.7125
3186.7915,95.6964
3187.7559,95.682
3188.7200,95.6694
3189.6843,95.6551
3190.6484,95.6346
3191.6128,95.6053
3192.5769,95.5684
3193.5413,95.5287
3194.5054,95.4923
3195.4697,95.4638
3196.4338,95.4453
3197.3982,95.436
3198.3623,95.4339
3199.3267,95.4363
3200.2908,95.4398
3201.2551,95.4406
3202.2192,95.4341
3203.1836,95.4169
3204.1477,95.3882
3205.1121,95.351
3206.0762,95.3112
3207.0405,95.2756
3208.0046,95.2489
3208.9690,95.2317
3209.9331,95.2213
3210.8975,95.213
3211.8616,95.2026
3212.8259,95.1888
3213.7900,95.1727
3214.7544,95.1574
3215.7185,95.1452
3216.6829,95.1365
3217.6470,95.1289
3218.6113,95.1184
3219.5754,95.1014
3220.5398,95.0765
3221.5039,95.0456
3222.4683,95.0126
3223.4324,94.9823
3224.3967,94.9579
3225.3608,94.9409
3226.3252,94.9312
3227.2893,94.9272
3228.2537,94.9263
3229.2178,94.9252
3230.1821,94.9205
3231.1462,94.9093
3232.1106,94.8907
3233.0747,94.8656
3234.0391,94.8363
3235.0032,94.8049
3235.9675,94.7729
3236.9316,94.7415
3237.8960,94.7126
3238.8601,94.6885
3239.8245,94.6718
3240.7886,94.6627
3241.7529,94.6588
3242.7170,94.6553
3243.6814,94.6477
3244.6455,94.6337
3245.6099,94.6139
3246.5740,94.5905
3247.5383,94.5655
3248.5024,94.5396
3249.4668,94.5133
3250.4309,94.4885
3251.3953,94.4674
3252.3594,94.4517
3253.3237,94.4398
3254.2878,94.4271
3255.2522,94.4089
3256.2163,94.3826
3257.1807,94.3506
3258.1448,94.3183
3259.1091,94.2911
3260.0732,94.2718
3261.0376,94.2595
3262.0017,94.2509
3262.9661,94.2424
3263.9302,94.2317
3264.8945,94.2175
3265.8586,94.1998
3266.8230,94.1784
3267.7871,94.1544
3268.7515,94.1298
3269.7156,94.1077
3270.6799,94.0911
3271.6440,94.0816
3272.6084,94.0779
3273.5725,94.0759
3274.5369,94.0708
3275.5010,94.0593
3276.4653,94.0425
3277.4294,94.0251
3278.3938,94.0131
3279.3579,94.0101
3280.3223,94.015
3281.2864,94.0224
3282.2507,94.026
3283.2148,94.0225
3284.1792,94.013
3285.1433,94.0011
3286.1077,93.9896
3287.0718,93.9775
3288.0361,93.9619
3289.0002,93.9408
3289.9646,93.9164
3290.9287,93.8944
3291.8931,93.8807
3292.8572,93.8764
3293.8215,93.8777
3294.7856,93.8779
3295.7500,93.8722
3296.7141,93.8604
3297.6785,93.8468
3298.6426,93.8362
3299.6069,93.8317
3300.5710,93.8327
3301.5354,93.8367
3302.4995,93.8412
3303.4639,93.8448
3304.4280,93.8474
3305.3923,93.8487
3306.3564,93.8482
3307.3208,93.8448
3308.2849,93.8382
3309.2493,93.829
3310.2134,93.8184
3311.1777,93.8074
3312.1418,93.7958
3313.1062,93.7823
3314.0703,93.7655
3315.0347,93.7453
3315.9988,93.7237
3316.9631,93.7055
3317.9272,93.6957
3318.8916,93.6972
3319.8557,93.7089
3320.8201,93.725
3321.7842,93.7377
3322.7485,93.7408
3323.7126,93.7331
3324.6770,93.7182
3325.6411,93.7024
3326.6055,93.6904
3327.5696,93.6825
3328.5339,93.6759
3329.4980,93.6672
3330.4624,93.6558
3331.4265,93.644
3332.3909,93.6358
3333.3550,93.6338
3334.3193,93.6382
3335.2834,93.6476
3336.2478,93.661
3337.2119,93.6788
3338.1763,93.7013
3339.1404,93.7268
3340.1047,93.7508
3341.0688,93.7675
3342.0332,93.7739
3342.9973,93.7714
3343.9617,93.7655
3344.9258,93.762
3345.8901,93.7632
3346.8542,93.7674
3347.8186,93.7705
3348.7827,93.7696
3349.7471,93.765
3350.7112,93.7591
3351.6755,93.7541
3352.6396,93.7506
3353.6040,93.748
3354.5681,93.7458
3355.5325,93.745
3356.4966,93.7476
3357.4609,93.7548
3358.4250,93.7657
3359.3894,93.778
3360.3535,93.7889
3361.3179,93.7969
3362.2820,93.8023
3363.2463,93.8065
3364.2104,93.8109
3365.1748,93.8164
3366.1389,93.8239
3367.1033,93.8336
3368.0674,93.8456
3369.0317,93.8592
3369.9958,93.8736
3370.9602,93.8888
3371.9243,93.9061
3372.8887,93.9269
3373.8528,93.9509
3374.8171,93.9747
3375.7813,93.9922
3376.7456,93.9976
3377.7097,93.9887
3378.6741,93.9689
3379.6382,93.9464
3380.6025,93.9306
3381.5667,93.9281
3382.5310,93.9406
3383.4951,93.9635
3384.4595,93.9878
3385.4236,94.0037
3386.3879,94.0052
3387.3521,93.9932
3388.3164,93.976
3389.2805,93.9657
3390.2449,93.9718
3391.2090,93.9958
3392.1733,94.0287
3393.1375,94.0563
3394.1018,94.0673
3395.0659,94.0592
3396.0303,94.0399
3396.9944,94.0218
3397.9587,94.0151
3398.9229,94.0229
3399.8872,94.0408
3400.8513,94.0621
3401.8157,94.0818
3402.7798,94.099
3403.7441,94.1149
3404.7083,94.1298
3405.6726,94.1416
3406.6367,94.1471
3407.6011,94.1449
3408.5652,94.1379
3409.5295,94.1322
3410.4937,94.1344
3411.4580,94.1478
3412.4221,94.1704
3413.3865,94.1966
3414.3506,94.2203
3415.3149,94.2388
3416.2791,94.2539
3417.2434,94.2698
3418.2075,94.2895
3419.1719,94.3123
3420.1360,94.3338
3421.1003,94.349
3422.0645,94.3557
3423.0288,94.3558
3423.9929,94.3536
3424.9573,94.354
3425.9214,94.3598
3426.8857,94.3717
3427.8499,94.3879
3428.8142,94.4054
3429.7783,94.4212
3430.7427,94.4344
3431.7068,94.4458
3432.6711,94.4576
3433.6353,94.4719
3434.5996,94.4894
3435.5637,94.5096
3436.5281,94.5312
3437.4922,94.5521
3438.4565,94.5697
3439.4207,94.5807
3440.3850,94.5819
3441.3491,94.5727
3442.3135,94.5577
3443.2776,94.5467
3444.2419,94.551
3445.2061,94.5772
3446.1704,94.6217
3447.1345,94.6722
3448.0989,94.7156
3449.0630,94.7461
3450.0273,94.7675
3450.9915,94.7881
3451.9558,94.8139
3452.9199,94.844
3453.8843,94.8708
3454.8484,94.8857
3455.8127,94.886
3456.7769,94.8786
3457.7412,94.8766
3458.7053,94.8915
3459.6697,94.9271
3460.6338,94.9769
3461.5981,95.0287
3462.5623,95.0713
3463.5266,95.1001
3464.4907,95.1185
3465.4551,95.1347
3466.4192,95.1564
3467.3835,95.186
3468.3477,95.2204
3469.3120,95.2522
3470.2761,95.2753
3471.2405,95.2876
3472.2046,95.2928
3473.1689,95.2975
3474.1331,95.3078
3475.0974,95.3266
3476.0615,95.3531
3477.0259,95.3853
3477.9900,95.4222
3478.9543,95.4632
3479.9185,95.5063
3480.8828,95.5463
3481.8469,95.5765
3482.8113,95.5936
3483.7754,95.6008
3484.7397,95.6058
3485.7039,95.6176
3486.6682,95.6414
3487.6323,95.6756
3488.5967,95.7132
3489.5608,95.7464
3490.5251,95.7717
3491.4893,95.7915
3492.4536,95.8129
3493.4177,95.8426
3494.3821,95.8821
3495.3462,95.9254
3496.3105,95.9628
3497.2747,95.9877
3498.2390,96.0017
3499.2031,96.0146
3500.1675,96.0393
3501.1316,96.0815
3502.0959,96.1331
3503.0601,96.1758
3504.0244,96.1951
3504.9885,96.1912
3505.9529,96.177
3506.9170,96.1712
3507.8813,96.1902
3508.8455,96.2399
3509.8098,96.3113
3510.7739,96.3856
3511.7383,96.4452
3512.7024,96.4815
3513.6667,96.4952
3514.6309,96.4927
3515.5952,96.4833
3516.5593,96.4753
3517.5237,96.4751
3518.4878,96.4873
3519.4521,96.5141
3520.4163,96.5554
3521.3806,96.6075
3522.3447,96.6629
3523.3091,96.7142
3524.2732,96.758
3525.2375,96.7961
3526.2017,96.8307
3527.1660,96.8608
3528.1301,96.8808
3529.0945,96.8866
3530.0586,96.8806
3531.0229,96.8708
3531.9871,96.8674
3532.9514,96.8784
3533.9155,96.9073
3534.8799,96.9505
3535.8440,96.999
3536.8083,97.0429
3537.7725,97.0759
3538.7368,97.0966
3539.7009,97.1067
3540.6653,97.1113
3541.6294,97.1217
3542.5938,97.153
3543.5579,97.2137
3544.5222,97.2944
3545.4863,97.3702
3546.4507,97.4186
3547.4148,97.4351
3548.3792,97.4305
3549.3433,97.4219
3550.3076,97.4267
3551.2717,97.4563
3552.2361,97.5082
3553.2002,97.5678
3554.1646,97.6187
3555.1287,97.6526
3556.0930,97.6719
3557.0571,97.6862
3558.0215,97.7049
3558.9856,97.7272
3559.9500,97.7397
3560.9141,97.7252
3561.8784,97.6789
3562.8425,97.623
3563.8069,97.6075
3564.7710,97.684
3565.7354,97.8474
3566.6995,98.0095
3567.6638,98.0839
3568.6279,98.0732
3569.5923,98.0235
3570.5564,97.9608
3571.5208,97.8946
3572.4849,97.8402
3573.4492,97.8202
3574.4133,97.8497
3575.3777,97.9252
3576.3418,98.0272
3577.3062,98.1309
3578.2703,98.2134
3579.2346,98.2554
3580.1987,98.2419
3581.1631,98.1668
3582.1272,98.0403
3583.0916,97.8972
3584.0557,97.8006
3585.0200,97.8205
3585.9841,97.9752
3586.9485,98.1832
3587.9126,98.3254
3588.8770,98.3598
3589.8411,98.3203
3590.8054,98.2516
3591.7695,98.1892
3592.7339,98.1633
3593.6980,98.188
3594.6624,98.2496
3595.6265,98.3206
3596.5908,98.3877
3597.5549,98.4581
3598.5193,98.5422
3599.4834,98.6345
3600.4478,98.7085
3601.4119,98.7336
3602.3762,98.6969
3603.3403,98.6097
3604.3047,98.5044
3605.2688,98.424
3606.2332,98.4026
3607.1973,98.4414
3608.1616,98.5102
3609.1257,98.579
3610.0901,98.6404
3611.0542,98.6985
3612.0186,98.7473
3612.9829,98.7673
3613.9470,98.742
3614.9114,98.6789
3615.8755,98.6169
3616.8398,98.6121
3617.8040,98.6996
3618.7683,98.8551
3619.7324,99.0056
3620.6968,99.091
3621.6609,99.0882
3622.6252,98.9864
3623.5894,98.7833
3624.5537,98.517
3625.5178,98.2949
3626.4822,98.2714
3627.4463,98.5257
3628.4106,98.9165
3629.3748,99.1979
3630.3391,99.298
3631.3032,99.2914
3632.2676,99.24
3633.2317,99.1731
3634.1960,99.1167
3635.1602,99.0965
3636.1245,99.1251
3637.0886,99.1961
3638.0530,99.2904
3639.0171,99.3861
3639.9814,99.4616
3640.9456,99.4943
3641.9099,99.4603
3642.8740,99.3447
3643.8384,99.1609
3644.8025,98.9807
3645.7668,98.9597
3646.7310,99.2964
3647.6953,100.008
3648.6594,100.657
3649.6238,100.769
3650.5879,100.468
3651.5522,100.091
3652.5164,99.7692
3653.4807,99.5207
3654.4448,99.3717
3655.4092,99.3579
3656.3733,99.4732
3657.3376,99.6562
3658.3018,99.8347
3659.2661,99.9687
3660.2302,100.053
3661.1946,100.101
3662.1587,100.115
3663.1230,100.081
3664.0872,99.9772
3665.0515,99.8048
3666.0156,99.6191
3666.9800,99.524
3667.9441,99.6062
3668.9084,99.8231
3669.8726,99.9947
3670.8369,99.9819
3671.8010,99.8135
3672.7654,99.6336
3673.7295,99.6026
3674.6938,99.7872
3675.6580,100.074
3676.6223,100.284
3677.5864,100.361
3678.5508,100.346
3679.5149,100.278
3680.4792,100.177
3681.4434,100.049
3682.4077,99.8904
3683.3718,99.6889
3684.3362,99.449
3685.3003,99.2232
3686.2646,99.1298
3687.2288,99.3027
3688.1931,99.7433
3689.1572,100.232
3690.1216,100.504
3691.0857,100.515
3692.0500,100.376
3693.0142,100.181
3693.9785,99.9688
3694.9426,99.7562
3695.9070,99.5537
3696.8711,99.3767
3697.8354,99.2519
3698.7996,99.216
3699.7639,99.2972
3700.7280,99.4822
3701.6924,99.7004
3702.6565,99.8591
3703.6208,99.8988
3704.5850,99.8094
3705.5493,99.6183
3706.5134,99.3851
3707.4778,99.2071
3708.4419,99.2024
3709.4063,99.4327
3710.3704,99.7972
3711.3347,100.078
3712.2988,100.169
3713.2632,100.126
3714.2273,100.026
3715.1917,99.8929
3716.1558,99.7387
3717.1201,99.5909
3718.0842,99.4939
3719.0486,99.4871
3720.0127,99.5838
3720.9771,99.7673
3721.9412,100.003
3722.9055,100.253
3723.8696,100.471
3724.8340,100.608
3725.7981,100.629
3726.7625,100.53
3727.7266,100.326
3728.6909,100.054
3729.6550,99.7653
3730.6194,99.5516
3731.5835,99.5391
3732.5479,99.8507
3733.5120,100.489
3734.4763,101.215
3735.4404,101.681
3736.4048,101.765
3737.3689,101.583
3738.3333,101.253
3739.2974,100.816
3740.2617,100.304
3741.2258,99.8097
3742.1902,99.4896
3743.1543,99.4628
3744.1187,99.6726
3745.0828,99.9149
3746.0471,100.046
3747.0112,100.075
3747.9756,100.108
3748.9397,100.254
3749.9041,100.498
3750.8682,100.647
3751.8325,100.565
3752.7966,100.336
3753.7610,100.073
3754.7251,99.8201
3755.6895,99.6068
3756.6536,99.4808
3757.6179,99.4753
3758.5820,99.5619
3759.5464,99.663
3760.5105,99.7121
3761.4749,99.687
3762.4390,99.6
3763.4033,99.4826
3764.3674,99.3729
3765.3318,99.305
3766.2959,99.2997
3767.2603,99.3599
3768.2244,99.4688
3769.1887,99.5903
3770.1528,99.6802
3771.1172,99.7058
3772.0813,99.6575
3773.0457,99.543
3774.0098,99.3842
3774.9741,99.221
3775.9382,99.1127
3776.9026,99.1144
3777.8667,99.235
3778.8311,99.417
3779.7952,99.5774
3780.7595,99.6676
3781.7236,99.6888
3782.6880,99.667
3783.6521,99.6287
3784.6165,99.5888
3785.5806,99.5517
3786.5449,99.5164
3787.5090,99.4824
3788.4734,99.4479
3789.4375,99.4088
3790.4019,99.3626
3791.3660,99.3167
3792.3303,99.2919
3793.2944,99.3138
3794.2588,99.3904
3795.2229,99.4962
3796.1873,99.5836
3797.1514,99.6192
3798.1157,99.6131
3799.0798,99.6064
3800.0442,99.6196
3801.0083,99.6167
3801.9727,99.5452
3802.9368,99.4016
3803.9011,99.2337
3804.8652,99.1083
3805.8296,99.0858
3806.7937,99.1846
3807.7581,99.3573
3808.7222,99.5177
3809.6865,99.5915
3810.6506,99.5465
3811.6150,99.4076
3812.5791,99.2564
3813.5435,99.1946
3814.5076,99.2683
3815.4719,99.4162
3816.4360,99.526
3817.4004,99.5431
3818.3645,99.4999
3819.3289,99.4581
3820.2930,99.4448
3821.2573,99.4454
3822.2214,99.448
3823.1858,99.4577
3824.1499,99.4761
3825.1143,99.4974
3826.0784,99.5204
3827.0427,99.5495
3828.0068,99.5871
3828.9712,99.6287
3829.9353,99.6627
3830.8997,99.6715
3831.8638,99.6354
3832.8281,99.5417
3833.7922,99.3995
3834.7566,99.2494
3835.7207,99.153
3836.6851,99.1595
3837.6492,99.2663
3838.6135,99.4196
3839.5776,99.565
3840.5420,99.6842
3841.5061,99.7836
3842.4705,99.8689
3843.4346,99.9351
3844.3989,99.9644
3845.3630,99.9293
3846.3274,99.7959
3847.2915,99.536
3848.2559,99.1504
3849.2200,98.706
3850.1843,98.3727
3851.1484,98.4033
3852.1128,98.9276
3853.0769,99.6375
3854.0413,100.053
3855.0054,100.131
3855.9697,100.058
3856.9338,99.907
3857.8982,99.6841
3858.8623,99.4167
3859.8267,99.181
3860.7908,99.0755
3861.7551,99.1584
3862.7192,99.3848
3863.6836,99.6177
3864.6477,99.7308
3865.6121,99.6913
3866.5762,99.552
3867.5405,99.4025
3868.5046,99.3266
3869.4690,99.3647
3870.4331,99.4913
3871.3975,99.6338
3872.3616,99.7233
3873.3259,99.7284
3874.2900,99.6514
3875.2544,99.5157
3876.2185,99.3608
3877.1829,99.2404
3878.1470,99.2078
3879.1113,99.2841
3880.0754,99.4336
3881.0398,99.5795
3882.0039,99.6583
3882.9683,99.6549
3883.9324,99.5911
3884.8967,99.4941
3885.8608,99.3803
3886.8252,99.2609
3887.7893,99.1551
3888.7537,99.1024
3889.7178,99.1548
3890.6821,99.3342
3891.6462,99.5838
3892.6106,99.79
3893.5747,99.8662
3894.5391,99.7939
3895.5032,99.6076
3896.4675,99.375
3897.4316,99.178
3898.3960,99.0819
3899.3601,99.1052
3900.3245,99.2206
3901.2886,99.3847
3902.2529,99.558
3903.2170,99.7026
3904.1814,99.7887
3905.1455,99.811
3906.1099,99.7841
3907.0740,99.7266
3908.0383,99.6537
3909.0024,99.579
3909.9668,99.5115
3910.9309,99.4526
3911.8953,99.3983
3912.8594,99.3488
3913.8237,99.3184
3914.7878,99.3319
3915.7522,99.4053
3916.7163,99.5227
3917.6807,99.6379
3918.6448,99.7057
3919.6091,99.7116
3920.5732,99.6715
3921.5376,99.6163
3922.5017,99.5751
3923.4661,99.5599
3924.4302,99.561
3925.3945,99.5572
3926.3586,99.535
3927.3230,99.4983
3928.2871,99.4675
3929.2515,99.4705
3930.2156,99.525
3931.1799,99.6215
3932.1440,99.7263
3933.1084,99.8043
3934.0725,99.8354
3935.0369,99.8141
3936.0010,99.7437
3936.9653,99.6355
3937.9294,99.5114
3938.8938,99.4025
3939.8579,99.3412
3940.8223,99.3471
3941.7864,99.4127
3942.7507,99.5053
3943.7148,99.5856
3944.6792,99.6304
3945.6433,99.6417
3946.6077,99.64
3947.5718,99.6484
3948.5361,99.6753
3949.5002,99.7088
3950.4646,99.7267
3951.4287,99.7136
3952.3931,99.6698
3953.3572,99.61
3954.3215,99.5551
3955.2856,99.5231
3956.2500,99.5226
3957.2141,99.5524
3958.1785,99.6052
3959.1426,99.6712
3960.1069,99.7377
3961.0710,99.7898
3962.0354,99.8124
3962.9995,99.798
3963.9639,99.7511
3964.9280,99.6871
3965.8923,99.6256
3966.8564,99.5818
3967.8208,99.5612
3968.7849,99.5597
3969.7493,99.5699
3970.7134,99.5867
3971.6777,99.6099
3972.6418,99.6405
3973.6062,99.6756
3974.5703,99.7067
3975.5347,99.7244
3976.4988,99.724
3977.4631,99.7096
3978.4272,99.6911
3979.3916,99.6785
3980.3557,99.6761
3981.3201,99.6805
3982.2842,99.6838
3983.2485,99.6785
3984.2126,99.6627
3985.1770,99.6406
3986.1411,99.6208
3987.1055,99.6117
3988.0696,99.6182
3989.0339,99.6395
3989.9980,99.6693
3990.9624,99.6985
3991.9265,99.7191
3992.8909,99.7279
3993.8550,99.727
3994.8193,99.722
3995.7834,99.718
3996.7478,99.7174
3997.7119,99.7188
3998.6763,99.7185
3999.6404,99.7136
4000.6047,99.8685

##### Extended Information
[Comments]
Sample name
Comment
User
Division
Company,HANKYONG

[Detailed Information]
Creation date,4/24/2024 3:39 PM

Data array type,Linear data array
Horizontal axis,Wavenumber [cm-1]
Vertical axis,%T
Start,649.893 cm-1
End,4000.6 cm-1
Data interval,0.964233 cm-1
Data points,3476    

[Measurement Information]
Model Name,FT/IR-4700typeA
Serial Number,D056761788

Accessory,ATR PRO ONE
Accessory S/N,C174761809
Incident angle,45 deg

Measurement Date,4/24/2024 3:37 PM

Light Source,Standard
Detector,TGS
Accumulation,32
Resolution,4 cm-1
Zero Filling,On
Apodization,Cosine
Gain,Auto (4)
Aperture,Auto (7.1 mm)
Scanning Speed,Auto (2 mm/sec)
Filter,Auto (30000 Hz)

