TITLE,
DATA TYPE,INFRARED SPECTRUM
ORIGIN,JASCO
OWNER,
DATE,24/04/24
TIME,11:38:20
SPECTROMETER/DATA SYSTEM,
LOCALE,1033
RESOLUTION,
DELTAX,0.964233
XUNITS,1/CM
YUNITS,TRANSMITTANCE
FIRSTX,  649.8934
LASTX, 4000.6047
NPOINTS,    3476
FIRSTY,    98.15362
MAXY,   101.82188
MINY,    49.13584
XYDATA
649.8934,98.1536
650.8576,98.0602
651.8218,97.9682
652.7861,97.8431
653.7503,97.6677
654.7145,97.4654
655.6788,97.2805
656.6430,97.1496
657.6072,97.0836
658.5715,97.0705
659.5357,97.0873
660.4999,97.1049
661.4642,97.0866
662.4284,96.9858
663.3926,96.748
664.3569,96.3107
665.3211,95.6087
666.2853,94.6142
667.2496,93.4713
668.2138,92.6246
669.1780,92.4954
670.1423,92.9288
671.1065,93.4617
672.0707,93.8273
673.0350,93.9844
673.9992,93.9932
674.9634,93.9439
675.9277,93.9213
676.8919,93.977
677.8561,94.1216
678.8204,94.3418
679.7846,94.6242
680.7488,94.9596
681.7131,95.3342
682.6773,95.7262
683.6415,96.114
684.6058,96.4887
685.5700,96.8528
686.5342,97.2059
687.4985,97.5282
688.4627,97.779
689.4269,97.9111
690.3912,97.8968
691.3554,97.7644
692.3196,97.6281
693.2839,97.6584
694.2481,97.956
695.2123,98.4582
696.1766,99.0142
697.1408,99.5001
698.1050,99.8543
699.0693,100.069
700.0335,100.176
700.9977,100.224
701.9620,100.261
702.9262,100.313
703.8904,100.384
704.8547,100.466
705.8189,100.542
706.7831,100.598
707.7474,100.624
708.7116,100.62
709.6758,100.598
710.6401,100.578
711.6043,100.579
712.5685,100.601
713.5328,100.621
714.4970,100.598
715.4612,100.806
716.4255,100.576
717.3897,100.281
718.3539,99.9866
719.3182,99.7708
720.2824,99.684
721.2466,99.7216
722.2109,99.8306
723.1751,99.9447
724.1393,100.021
725.1036,100.051
726.0678,100.055
727.0320,100.06
727.9963,100.082
728.9605,100.117
729.9247,100.155
730.8890,100.186
731.8532,100.208
732.8174,100.23
733.7817,100.257
734.7459,100.29
735.7101,100.318
736.6744,100.324
737.6386,100.294
738.6028,100.226
739.5671,100.133
740.5313,100.034
741.4955,99.9511
742.4598,99.8918
743.4240,99.851
744.3882,99.8139
745.3525,99.765
746.3167,99.6966
747.2809,99.6109
748.2452,99.5161
749.2094,99.4204
750.1736,99.3276
751.1379,99.237
752.1021,99.1468
753.0663,99.0571
754.0306,98.9704
754.9948,98.8895
755.9590,98.8148
756.9233,98.7427
757.8875,98.6677
758.8517,98.5861
759.8160,98.4983
760.7802,98.4085
761.7444,98.3213
762.7087,98.2386
763.6729,98.1594
764.6371,98.0816
765.6014,98.0058
766.5656,97.9359
767.5298,97.8772
768.4941,97.8319
769.4583,97.7962
770.4225,97.7609
771.3868,97.7146
772.3510,97.6481
773.3152,97.5568
774.2795,97.4411
775.2437,97.3062
776.2079,97.1612
777.1722,97.0177
778.1364,96.8867
779.1006,96.7737
780.0649,96.676
781.0291,96.5843
781.9933,96.4876
782.9576,96.3805
783.9218,96.2655
784.8860,96.1503
785.8503,96.0408
786.8145,95.9363
787.7787,95.8299
788.7430,95.7148
789.7072,95.5904
790.6714,95.4631
791.6357,95.3422
792.5999,95.2329
793.5641,95.1324
794.5284,95.0324
795.4926,94.9238
796.4568,94.8019
797.4211,94.6667
798.3853,94.52
799.3495,94.362
800.3138,94.1906
801.2780,94.0041
802.2422,93.8035
803.2065,93.5939
804.1707,93.382
805.1349,93.1721
806.0992,92.963
807.0634,92.7485
808.0276,92.5204
808.9919,92.2732
809.9561,92.0076
810.9203,91.7315
811.8846,91.4573
812.8488,91.1977
813.8130,90.9621
814.7773,90.7537
815.7415,90.5707
816.7057,90.4085
817.6700,90.2636
818.6342,90.136
819.5984,90.0292
820.5627,89.9479
821.5269,89.8944
822.4911,89.8657
823.4554,89.8536
824.4196,89.8469
825.3839,89.8356
826.3481,89.8127
827.3123,89.774
828.2766,89.7155
829.2408,89.6314
830.2050,89.5136
831.1693,89.3538
832.1335,89.1464
833.0977,88.8891
834.0620,88.5823
835.0262,88.2278
835.9904,87.8293
836.9547,87.3931
837.9189,86.9308
838.8831,86.458
839.8474,85.9912
840.8116,85.5443
841.7758,85.1252
842.7401,84.7368
843.7043,84.3788
844.6685,84.0511
845.6328,83.7549
846.5970,83.4931
847.5612,83.2702
848.5255,83.0914
849.4897,82.9618
850.4539,82.8841
851.4182,82.8552
852.3824,82.8656
853.3466,82.9002
854.3109,82.9433
855.2751,82.9839
856.2393,83.0188
857.2036,83.052
858.1678,83.0903
859.1320,83.1399
860.0963,83.204
861.0605,83.2835
862.0247,83.3797
862.9890,83.4956
863.9532,83.6361
864.9174,83.8067
865.8817,84.0127
866.8459,84.2575
867.8101,84.5428
868.7744,84.8666
869.7386,85.2231
870.7028,85.6015
871.6671,85.9878
872.6313,86.3659
873.5955,86.7213
874.5598,87.0422
875.5240,87.3215
876.4882,87.556
877.4525,87.7468
878.4167,87.8979
879.3809,88.0154
880.3452,88.1057
881.3094,88.1742
882.2736,88.2243
883.2379,88.2574
884.2021,88.2747
885.1663,88.2773
886.1306,88.2665
887.0948,88.2431
888.0590,88.2076
889.0233,88.16
889.9875,88.1018
890.9517,88.0367
891.9160,87.9695
892.8802,87.9043
893.8444,87.8414
894.8087,87.7768
895.7729,87.703
896.7371,87.6127
897.7014,87.5014
898.6656,87.3692
899.6298,87.2197
900.5941,87.0579
901.5583,86.8885
902.5225,86.7155
903.4868,86.5427
904.4510,86.3742
905.4152,86.2132
906.3795,86.0607
907.3437,85.9141
908.3079,85.7689
909.2722,85.6214
910.2364,85.4721
911.2006,85.3265
912.1649,85.1928
913.1291,85.0783
914.0933,84.9868
915.0576,84.9188
916.0218,84.8737
916.9860,84.8521
917.9503,84.8557
918.9145,84.8859
919.8787,84.9427
920.8430,85.0257
921.8072,85.1357
922.7714,85.2777
923.7357,85.4604
924.6999,85.6928
925.6641,85.98
926.6284,86.3217
927.5926,86.7136
928.5568,87.1524
929.5211,87.6406
930.4853,88.1892
931.4495,88.8146
932.4138,89.533
933.3780,90.3529
934.3422,91.2695
935.3065,92.2622
936.2707,93.2968
937.2349,94.3308
938.1992,95.321
939.1634,96.2307
940.1276,97.0345
941.0919,97.7193
942.0561,98.282
943.0203,98.7252
943.9846,99.0538
944.9488,99.2743
945.9130,99.3959
946.8773,99.4551
947.8415,99.5073
948.8057,99.5095
949.7700,99.4755
950.7342,99.4117
951.6984,99.3169
952.6627,99.1861
953.6269,99.0138
954.5911,98.7971
955.5554,98.5357
956.5196,98.2307
957.4838,97.8835
958.4481,97.4953
959.4123,97.0681
960.3765,96.6038
961.3408,96.1049
962.3050,95.5732
963.2692,95.0107
964.2335,94.4211
965.1977,93.8109
966.1619,93.1898
967.1262,92.5701
968.0904,91.9637
969.0546,91.3809
970.0189,90.8291
970.9831,90.3136
971.9473,89.8383
972.9116,89.4058
973.8758,89.0171
974.8400,88.6702
975.8043,88.3586
976.7685,88.0703
977.7327,87.7894
978.6970,87.4974
979.6612,87.1777
980.6254,86.818
981.5897,86.4129
982.5539,85.9628
983.5181,85.4726
984.4824,84.9496
985.4466,84.4031
986.4108,83.8455
987.3751,83.2935
988.3393,82.7677
989.3035,82.291
990.2678,81.8838
991.2320,81.5605
992.1962,81.327
993.1605,81.1807
994.1247,81.1128
995.0889,81.1113
996.0532,81.1627
997.0174,81.2534
997.9816,81.3686
998.9459,81.4921
999.9101,81.6057
1000.8743,81.6897
1001.8386,81.7237
1002.8028,81.6872
1003.7670,81.56
1004.7313,81.3227
1005.6955,80.9585
1006.6597,80.4547
1007.6240,79.8047
1008.5882,79.0087
1009.5524,78.0729
1010.5167,77.0082
1011.4809,75.828
1012.4451,74.5463
1013.4094,73.1761
1014.3736,71.7291
1015.3378,70.2171
1016.3021,68.6553
1017.2663,67.0656
1018.2305,65.4755
1019.1948,63.9125
1020.1590,62.3949
1021.1232,60.9254
1022.0875,59.4937
1023.0517,58.0882
1024.0160,56.7107
1024.9802,55.3849
1025.9445,54.1511
1026.9087,53.0508
1027.8729,52.1095
1028.8372,51.3283
1029.8014,50.6897
1030.7656,50.1708
1031.7299,49.7556
1032.6941,49.4407
1033.6583,49.2315
1034.6226,49.1358
1035.5868,49.1581
1036.5510,49.2968
1037.5153,49.5432
1038.4795,49.881
1039.4437,50.2877
1040.4080,50.7398
1041.3722,51.2194
1042.3364,51.7203
1043.3007,52.2482
1044.2649,52.814
1045.2291,53.4251
1046.1934,54.0803
1047.1576,54.7731
1048.1218,55.499
1049.0861,56.2611
1050.0503,57.0674
1051.0145,57.9219
1051.9788,58.8151
1052.9430,59.7248
1053.9072,60.6275
1054.8715,61.5144
1055.8357,62.3999
1056.7999,63.3133
1057.7642,64.2758
1058.7284,65.2765
1059.6926,66.2637
1060.6569,67.1615
1061.6211,67.9043
1062.5853,68.4722
1063.5496,68.9038
1064.5138,69.2787
1065.4780,69.6775
1066.4423,70.1412
1067.4065,70.6528
1068.3707,71.1502
1069.3350,71.5601
1070.2992,71.833
1071.2634,71.959
1072.2277,71.9617
1073.1919,71.877
1074.1561,71.734
1075.1204,71.5474
1076.0846,71.3219
1077.0488,71.0616
1078.0131,70.775
1078.9773,70.4734
1079.9415,70.1661
1080.9058,69.857
1081.8700,69.5456
1082.8342,69.2307
1083.7985,68.9151
1084.7627,68.6078
1085.7269,68.3241
1086.6912,68.0824
1087.6554,67.9005
1088.6196,67.7891
1089.5839,67.7469
1090.5481,67.7583
1091.5123,67.7967
1092.4766,67.8332
1093.4408,67.8455
1094.4050,67.824
1095.3693,67.7709
1096.3335,67.694
1097.2977,67.6
1098.2620,67.4901
1099.2262,67.3612
1100.1904,67.2097
1101.1547,67.0351
1102.1189,66.8406
1103.0831,66.633
1104.0474,66.4206
1105.0116,66.2143
1105.9758,66.0286
1106.9401,65.883
1107.9043,65.8017
1108.8685,65.8099
1109.8328,65.9301
1110.7970,66.1785
1111.7612,66.5641
1112.7255,67.0905
1113.6897,67.7581
1114.6539,68.5667
1115.6182,69.5153
1116.5824,70.6013
1117.5466,71.8184
1118.5109,73.1552
1119.4751,74.5959
1120.4393,76.1206
1121.4036,77.7079
1122.3678,79.3354
1123.3320,80.9813
1124.2963,82.6243
1125.2605,84.2443
1126.2247,85.8229
1127.1890,87.3442
1128.1532,88.7948
1129.1174,90.1639
1130.0817,91.4434
1131.0459,92.6264
1132.0101,93.708
1132.9744,94.6845
1133.9386,95.5533
1134.9028,96.3137
1135.8671,96.9665
1136.8313,97.5143
1137.7955,97.9617
1138.7598,98.3147
1139.7240,98.5798
1140.6882,98.7632
1141.6525,98.87
1142.6167,98.905
1143.5809,98.8733
1144.5452,98.7833
1145.5094,98.6477
1146.4736,98.4736
1147.4379,98.2467
1148.4021,98.0276
1149.3663,97.8301
1150.3306,97.6631
1151.2948,97.5316
1152.2590,97.4377
1153.2233,97.3807
1154.1875,97.3564
1155.1517,97.3562
1156.1160,97.3676
1157.0802,97.3769
1158.0444,97.3722
1159.0087,97.3448
1159.9729,97.2881
1160.9371,97.1964
1161.9014,97.0626
1162.8656,96.8809
1163.8298,96.6488
1164.7941,96.3693
1165.7583,96.0499
1166.7225,95.6991
1167.6868,95.3223
1168.6510,94.9207
1169.6152,94.493
1170.5795,94.0383
1171.5437,93.5582
1172.5079,93.0559
1173.4722,92.5333
1174.4364,91.9901
1175.4006,91.4239
1176.3649,90.8333
1177.3291,90.2209
1178.2933,89.5934
1179.2576,88.96
1180.2218,88.3291
1181.1860,87.7059
1182.1503,87.0932
1183.1145,86.4924
1184.0787,85.9064
1185.0430,85.3391
1186.0072,84.7944
1186.9714,84.2743
1187.9357,83.7779
1188.8999,83.3022
1189.8641,82.8433
1190.8284,82.3983
1191.7926,81.9654
1192.7568,81.5438
1193.7211,81.1331
1194.6853,80.7332
1195.6495,80.344
1196.6138,79.965
1197.5780,79.594
1198.5422,79.2272
1199.5065,78.9197
1200.4707,78.5412
1201.4349,78.1588
1202.3992,77.7777
1203.3634,77.4066
1204.3276,77.0543
1205.2919,76.7276
1206.2561,76.4296
1207.2203,76.16
1208.1846,75.9181
1209.1488,75.7038
1210.1130,75.519
1211.0773,75.367
1212.0415,75.2507
1213.0057,75.1718
1213.9700,75.1304
1214.9342,75.1255
1215.8984,75.1553
1216.8627,75.2182
1217.8269,75.3125
1218.7911,75.435
1219.7554,75.5817
1220.7196,75.7477
1221.6838,75.9275
1222.6481,76.1152
1223.6123,76.3043
1224.5765,76.488
1225.5408,76.6606
1226.5050,76.8172
1227.4692,76.9533
1228.4335,77.0641
1229.3977,77.1441
1230.3619,77.1903
1231.3262,77.2065
1232.2904,77.2071
1233.2546,77.2167
1234.2189,77.2636
1235.1831,77.3705
1236.1473,77.5475
1237.1116,77.7921
1238.0758,78.0949
1239.0400,78.4483
1240.0043,78.8486
1240.9685,79.2917
1241.9327,79.7647
1242.8970,80.2406
1243.8612,80.683
1244.8254,81.0588
1245.7897,81.3516
1246.7539,81.5668
1247.7181,81.7258
1248.6824,81.8534
1249.6466,81.9665
1250.6108,82.0696
1251.5751,82.1574
1252.5393,82.2218
1253.5035,82.257
1254.4678,82.261
1255.4320,82.2355
1256.3962,82.1836
1257.3605,82.1095
1258.3247,82.0178
1259.2889,81.9131
1260.2532,81.7987
1261.2174,81.675
1262.1816,81.5403
1263.1459,81.3922
1264.1101,81.23
1265.0743,81.0563
1266.0386,80.8776
1267.0028,80.7034
1267.9670,80.5452
1268.9313,80.4153
1269.8955,80.3245
1270.8597,80.2807
1271.8240,80.2868
1272.7882,80.3403
1273.7524,80.4355
1274.7167,80.5655
1275.6809,80.7254
1276.6451,80.9121
1277.6094,81.1239
1278.5736,81.3585
1279.5378,81.6118
1280.5021,81.878
1281.4663,82.1505
1282.4305,82.4236
1283.3948,82.6934
1284.3590,82.9583
1285.3232,83.2179
1286.2875,83.4726
1287.2517,83.722
1288.2159,83.9647
1289.1802,84.1977
1290.1444,84.418
1291.1086,84.6237
1292.0729,84.8143
1293.0371,84.9915
1294.0013,85.1578
1294.9656,85.3155
1295.9298,85.4661
1296.8940,85.6095
1297.8583,85.7439
1298.8225,85.8664
1299.7867,85.9731
1300.7510,86.0607
1301.7152,86.1265
1302.6794,86.1705
1303.6437,86.1945
1304.6079,86.2011
1305.5721,86.1919
1306.5364,86.1661
1307.5006,86.1217
1308.4648,86.0566
1309.4291,85.9712
1310.3933,85.8693
1311.3575,85.7572
1312.3218,85.641
1313.2860,85.5235
1314.2502,85.404
1315.2145,85.2802
1316.1787,85.1526
1317.1429,85.0271
1318.1072,84.9134
1319.0714,84.82
1320.0356,84.748
1320.9999,84.6906
1321.9641,84.6375
1322.9283,84.5817
1323.8926,84.5231
1324.8568,84.468
1325.8210,84.4255
1326.7853,84.4045
1327.7495,84.4113
1328.7137,84.4499
1329.6780,84.5231
1330.6422,84.6314
1331.6064,84.7705
1332.5707,84.9298
1333.5349,85.0934
1334.4991,85.2468
1335.4634,85.3841
1336.4276,85.5155
1337.3918,85.6689
1338.3561,85.8805
1339.3203,86.1671
1340.2845,86.5039
1341.2488,86.8372
1342.2130,87.1217
1343.1772,87.3415
1344.1415,87.5024
1345.1057,87.6188
1346.0699,87.7044
1347.0342,87.7704
1347.9984,87.8239
1348.9626,87.8671
1349.9269,87.8975
1350.8911,87.9104
1351.8553,87.9033
1352.8196,87.8782
1353.7838,87.8417
1354.7480,87.8007
1355.7123,87.7576
1356.6765,87.7084
1357.6407,87.6463
1358.6050,87.5661
1359.5692,87.469
1360.5334,87.3677
1361.4977,87.2868
1362.4619,87.2459
1363.4261,87.2365
1364.3904,87.2271
1365.3546,87.1923
1366.3188,87.1282
1367.2831,87.044
1368.2473,86.9503
1369.2115,86.852
1370.1758,86.7485
1371.1400,86.6376
1372.1042,86.5236
1373.0685,86.422
1374.0327,86.3549
1374.9969,86.3317
1375.9612,86.3381
1376.9254,86.3494
1377.8896,86.3532
1378.8539,86.3539
1379.8181,86.3622
1380.7823,86.3845
1381.7466,86.4198
1382.7108,86.4647
1383.6750,86.5207
1384.6393,86.5952
1385.6035,86.6973
1386.5677,86.8234
1387.5320,86.9392
1388.4962,86.9871
1389.4604,86.9288
1390.4247,86.7717
1391.3889,86.5526
1392.3531,86.3148
1393.3174,86.1025
1394.2816,85.9607
1395.2458,85.9179
1396.2101,85.9591
1397.1743,86.0272
1398.1385,86.0582
1399.1028,86.0148
1400.0670,85.8933
1401.0313,85.7118
1401.9955,85.4947
1402.9597,85.265
1403.9240,85.0415
1404.8882,84.8384
1405.8524,84.6602
1406.8167,84.4993
1407.7809,84.3433
1408.7451,84.1849
1409.7094,84.0219
1410.6736,83.852
1411.6378,83.6718
1412.6021,83.48
1413.5663,83.2815
1414.5305,83.0837
1415.4948,82.8874
1416.4590,82.683
1417.4232,82.4646
1418.3875,82.242
1419.3517,82.0185
1420.3159,81.7742
1421.2802,81.5013
1422.2444,81.2267
1423.2086,80.9892
1424.1729,80.8128
1425.1371,80.6991
1426.1013,80.6388
1427.0656,80.6281
1428.0298,80.6763
1428.9940,80.798
1429.9583,80.9928
1430.9225,81.237
1431.8867,81.5033
1432.8510,81.786
1433.8152,82.1006
1434.7794,82.4618
1435.7437,82.855
1436.7079,83.2091
1437.6721,83.413
1438.6364,83.4051
1439.6006,83.221
1440.5648,82.9389
1441.5291,82.6149
1442.4933,82.2668
1443.4575,81.8884
1444.4218,81.4695
1445.3860,81.0072
1446.3502,80.5098
1447.3145,79.9954
1448.2787,79.4871
1449.2429,79.0045
1450.2072,78.5625
1451.1714,78.1787
1452.1356,77.8721
1453.0999,77.6473
1454.0641,77.4754
1455.0283,77.3047
1455.9926,77.1407
1456.9568,77.1115
1457.9210,77.2473
1458.8853,77.3455
1459.8495,77.3028
1460.8137,77.2056
1461.7780,77.1756
1462.7422,77.3056
1463.7064,77.662
1464.6707,78.2584
1465.6349,79.0008
1466.5991,79.737
1467.5634,80.395
1468.5276,81.0155
1469.4918,81.6819
1470.4561,82.47
1471.4203,83.4435
1472.3845,84.6307
1473.3488,85.9268
1474.3130,87.0887
1475.2772,87.9507
1476.2415,88.5316
1477.2057,88.9271
1478.1699,89.2147
1479.1342,89.4386
1480.0984,89.6228
1481.0626,89.7798
1482.0269,89.9104
1482.9911,90.0049
1483.9553,90.0508
1484.9196,90.0381
1485.8838,89.9578
1486.8480,89.8105
1487.8123,89.6385
1488.7765,89.5378
1489.7407,89.5577
1490.7050,89.6127
1491.6692,89.5957
1492.6334,89.4879
1493.5977,89.3188
1494.5619,89.1051
1495.5261,88.8454
1496.4904,88.5591
1497.4546,88.2991
1498.4188,88.0865
1499.3831,87.8816
1500.3473,87.6646
1501.3115,87.4755
1502.2758,87.3621
1503.2400,87.313
1504.2042,87.2021
1505.1685,86.7737
1506.1327,85.8218
1507.0969,84.6249
1508.0612,83.7355
1509.0254,83.1567
1509.9896,82.6404
1510.9539,82.1101
1511.9181,81.5925
1512.8823,81.1371
1513.8466,80.8113
1514.8108,80.7
1515.7750,80.8719
1516.7393,81.3363
1517.7035,82.0614
1518.6677,83.0501
1519.6320,84.3683
1520.5962,86.0416
1521.5604,87.906
1522.5247,89.6585
1523.4889,91.1153
1524.4531,92.3334
1525.4174,93.4698
1526.3816,94.5929
1527.3458,95.6368
1528.3101,96.5025
1529.2743,97.1621
1530.2385,97.6707
1531.2028,98.1175
1532.1670,98.5749
1533.1312,99.0534
1534.0955,99.4921
1535.0597,99.8341
1536.0239,100.092
1536.9882,100.297
1537.9524,100.405
1538.9166,100.286
1539.8809,99.9329
1540.8451,99.6978
1541.8093,99.8545
1542.7736,100.181
1543.7378,100.444
1544.7020,100.607
1545.6663,100.686
1546.6305,100.693
1547.5947,100.646
1548.5590,100.571
1549.5232,100.488
1550.4874,100.401
1551.4517,100.3
1552.4159,100.184
1553.3801,100.078
1554.3444,100.024
1555.3086,100.041
1556.2728,100.087
1557.2371,100.115
1558.2013,100.239
1559.1655,100.454
1560.1298,100.42
1561.0940,100.002
1562.0582,99.417
1563.0225,98.8855
1563.9867,98.5012
1564.9509,98.2601
1565.9152,98.1041
1566.8794,97.9558
1567.8436,97.7555
1568.8079,97.4918
1569.7721,97.1937
1570.7363,96.8955
1571.7006,96.6204
1572.6648,96.3721
1573.6290,96.1142
1574.5933,95.7757
1575.5575,95.323
1576.5217,94.8239
1577.4860,94.3635
1578.4502,93.9427
1579.4144,93.533
1580.3787,93.1257
1581.3429,92.7168
1582.3071,92.2977
1583.2714,91.8648
1584.2356,91.4259
1585.1998,90.9912
1586.1641,90.566
1587.1283,90.1522
1588.0925,89.7535
1589.0568,89.376
1590.0210,89.0236
1590.9852,88.6948
1591.9495,88.3851
1592.9137,88.0933
1593.8779,87.8242
1594.8422,87.584
1595.8064,87.3718
1596.7706,87.1779
1597.7349,86.9892
1598.6991,86.7985
1599.6633,86.609
1600.6276,86.4326
1601.5918,86.284
1602.5560,86.1718
1603.5203,86.0923
1604.4845,86.033
1605.4487,85.9837
1606.4130,85.9458
1607.3772,85.9353
1608.3414,85.9729
1609.3057,86.0649
1610.2699,86.1953
1611.2341,86.3453
1612.1984,86.5172
1613.1626,86.7373
1614.1268,87.0481
1615.0911,87.502
1616.0553,88.1168
1617.0195,88.7853
1617.9838,89.3202
1618.9480,89.6536
1619.9122,89.8748
1620.8765,90.1087
1621.8407,90.4267
1622.8049,90.8258
1623.7692,91.2432
1624.7334,91.6032
1625.6976,91.8767
1626.6619,92.0873
1627.6261,92.2669
1628.5903,92.4223
1629.5546,92.5486
1630.5188,92.6576
1631.4830,92.7755
1632.4473,92.9072
1633.4115,93.0063
1634.3757,93.0111
1635.3400,92.948
1636.3042,92.919
1637.2684,92.9184
1638.2327,92.865
1639.1969,92.7544
1640.1611,92.6406
1641.1254,92.5703
1642.0896,92.5576
1643.0538,92.5735
1644.0181,92.5417
1644.9823,92.3766
1645.9465,92.0878
1646.9108,91.8214
1647.8750,91.7072
1648.8392,91.7669
1649.8035,91.9766
1650.7677,92.2682
1651.7319,92.5051
1652.6962,92.584
1653.6604,92.5346
1654.6246,92.3242
1655.5889,91.918
1656.5531,91.4543
1657.5173,91.0862
1658.4816,90.8675
1659.4458,90.7641
1660.4100,90.7039
1661.3743,90.6338
1662.3385,90.5454
1663.3027,90.4475
1664.2670,90.3433
1665.2312,90.237
1666.1954,90.1261
1667.1597,89.9877
1668.1239,89.7997
1669.0881,89.5891
1670.0524,89.4282
1671.0166,89.3554
1671.9808,89.3502
1672.9451,89.3793
1673.9093,89.4095
1674.8735,89.3912
1675.8378,89.2681
1676.8020,89.019
1677.7662,88.6917
1678.7305,88.3805
1679.6947,88.1665
1680.6589,88.067
1681.6232,88.0232
1682.5874,87.9471
1683.5516,87.8105
1684.5159,87.6291
1685.4801,87.3615
1686.4443,86.9837
1687.4086,86.5551
1688.3728,86.1545
1689.3370,85.83
1690.3013,85.5946
1691.2655,85.4319
1692.2297,85.2987
1693.1940,85.1289
1694.1582,84.853
1695.1224,84.4408
1696.0867,83.9504
1697.0509,83.5253
1698.0151,83.2892
1698.9794,83.2106
1699.9436,83.1119
1700.9078,82.843
1701.8721,82.4071
1702.8363,81.9176
1703.8005,81.4965
1704.7648,81.2157
1705.7290,81.0848
1706.6932,81.0602
1707.6575,81.0742
1708.6217,81.078
1709.5859,81.0639
1710.5502,81.0511
1711.5144,81.058
1712.4786,81.0887
1713.4429,81.1378
1714.4071,81.2183
1715.3713,81.406
1716.3356,81.8276
1717.2998,82.4751
1718.2640,83.0938
1719.2283,83.4683
1720.1925,83.6286
1721.1567,83.7234
1722.1210,83.8713
1723.0852,84.1152
1724.0494,84.4325
1725.0137,84.7678
1725.9779,85.0696
1726.9421,85.3177
1727.9064,85.526
1728.8706,85.7291
1729.8348,85.9649
1730.7991,86.2677
1731.7633,86.6736
1732.7275,87.2073
1733.6918,87.8074
1734.6560,88.2984
1735.6202,88.5605
1736.5845,88.6541
1737.5487,88.7243
1738.5129,88.8761
1739.4772,89.1327
1740.4414,89.4486
1741.4056,89.751
1742.3699,89.9904
1743.3341,90.1679
1744.2983,90.3187
1745.2626,90.4792
1746.2268,90.6735
1747.1910,90.9266
1748.1553,91.2788
1749.1195,91.76
1750.0837,92.3201
1751.0480,92.8255
1752.0122,93.1726
1752.9764,93.3659
1753.9407,93.4791
1754.9049,93.5853
1755.8691,93.721
1756.8334,93.8876
1757.7976,94.0693
1758.7618,94.2562
1759.7261,94.453
1760.6903,94.6695
1761.6545,94.9013
1762.6188,95.1234
1763.5830,95.3097
1764.5472,95.4567
1765.5115,95.5823
1766.4757,95.705
1767.4399,95.8272
1768.4042,95.9362
1769.3684,96.024
1770.3326,96.1136
1771.2969,96.2622
1772.2611,96.5071
1773.2253,96.8002
1774.1896,97.0498
1775.1538,97.2187
1776.1180,97.3407
1777.0823,97.4678
1778.0465,97.6284
1779.0107,97.8213
1779.9750,98.0297
1780.9392,98.2385
1781.9034,98.4408
1782.8677,98.6336
1783.8319,98.8075
1784.7961,98.9449
1785.7604,99.0327
1786.7246,99.0776
1787.6888,99.1044
1788.6531,99.1359
1789.6173,99.1764
1790.5815,99.2182
1791.5458,99.2641
1792.5100,99.3203
1793.4742,99.3675
1794.4385,99.3806
1795.4027,99.3703
1796.3669,99.3719
1797.3312,99.4088
1798.2954,99.4803
1799.2596,99.572
1800.2239,99.6708
1801.1881,99.7661
1802.1523,99.847
1803.1166,99.9052
1804.0808,99.9397
1805.0450,99.9546
1806.0093,99.9541
1806.9735,99.941
1807.9377,99.9201
1808.9020,99.9033
1809.8662,99.9079
1810.8304,99.9447
1811.7947,100.008
1812.7589,100.079
1813.7231,100.144
1814.6874,100.195
1815.6516,100.233
1816.6158,100.255
1817.5801,100.262
1818.5443,100.255
1819.5085,100.241
1820.4728,100.226
1821.4370,100.219
1822.4012,100.218
1823.3655,100.218
1824.3297,100.209
1825.2939,100.184
1826.2582,100.14
1827.2224,100.096
1828.1866,100.076
1829.1509,100.096
1830.1151,100.16
1831.0793,100.236
1832.0436,100.286
1833.0078,100.297
1833.9720,100.284
1834.9363,100.269
1835.9005,100.262
1836.8647,100.264
1837.8290,100.272
1838.7932,100.289
1839.7574,100.324
1840.7217,100.376
1841.6859,100.43
1842.6501,100.463
1843.6144,100.468
1844.5786,100.455
1845.5428,100.435
1846.5071,100.41
1847.4713,100.394
1848.4355,100.4
1849.3998,100.433
1850.3640,100.48
1851.3282,100.524
1852.2925,100.551
1853.2567,100.561
1854.2209,100.558
1855.1852,100.55
1856.1494,100.539
1857.1136,100.527
1858.0779,100.519
1859.0421,100.517
1860.0063,100.524
1860.9706,100.532
1861.9348,100.527
1862.8990,100.499
1863.8633,100.447
1864.8275,100.374
1865.7917,100.292
1866.7560,100.225
1867.7202,100.214
1868.6844,100.287
1869.6487,100.416
1870.6129,100.535
1871.5771,100.607
1872.5414,100.636
1873.5056,100.645
1874.4698,100.649
1875.4341,100.653
1876.3983,100.655
1877.3625,100.656
1878.3268,100.655
1879.2910,100.655
1880.2552,100.653
1881.2195,100.648
1882.1837,100.635
1883.1479,100.615
1884.1122,100.592
1885.0764,100.572
1886.0406,100.559
1887.0049,100.555
1887.9691,100.559
1888.9333,100.569
1889.8976,100.577
1890.8618,100.574
1891.8260,100.556
1892.7903,100.53
1893.7545,100.508
1894.7188,100.502
1895.6830,100.518
1896.6472,100.55
1897.6115,100.584
1898.5757,100.608
1899.5399,100.616
1900.5042,100.611
1901.4684,100.6
1902.4326,100.587
1903.3969,100.573
1904.3611,100.552
1905.3253,100.522
1906.2896,100.483
1907.2538,100.444
1908.2180,100.418
1909.1823,100.418
1910.1465,100.442
1911.1107,100.478
1912.0750,100.511
1913.0392,100.535
1914.0034,100.552
1914.9677,100.565
1915.9319,100.573
1916.8961,100.571
1917.8604,100.552
1918.8246,100.511
1919.7888,100.453
1920.7531,100.392
1921.7173,100.353
1922.6815,100.349
1923.6458,100.38
1924.6100,100.43
1925.5742,100.476
1926.5385,100.505
1927.5027,100.517
1928.4669,100.517
1929.4312,100.51
1930.3954,100.501
1931.3596,100.493
1932.3239,100.486
1933.2881,100.483
1934.2523,100.483
1935.2166,100.485
1936.1808,100.483
1937.1450,100.473
1938.1093,100.453
1939.0735,100.423
1940.0377,100.386
1941.0020,100.348
1941.9662,100.32
1942.9304,100.309
1943.8947,100.316
1944.8589,100.335
1945.8231,100.36
1946.7874,100.387
1947.7516,100.415
1948.7158,100.439
1949.6801,100.456
1950.6443,100.463
1951.6085,100.461
1952.5728,100.455
1953.5370,100.45
1954.5012,100.448
1955.4655,100.45
1956.4297,100.455
1957.3939,100.46
1958.3582,100.465
1959.3224,100.47
1960.2866,100.474
1961.2509,100.473
1962.2151,100.464
1963.1793,100.445
1964.1436,100.419
1965.1078,100.395
1966.0720,100.383
1967.0363,100.392
1968.0005,100.42
1968.9647,100.458
1969.9290,100.493
1970.8932,100.517
1971.8574,100.528
1972.8217,100.53
1973.7859,100.528
1974.7501,100.526
1975.7144,100.527
1976.6786,100.529
1977.6428,100.532
1978.6071,100.534
1979.5713,100.534
1980.5355,100.533
1981.4998,100.531
1982.4640,100.529
1983.4282,100.526
1984.3925,100.518
1985.3567,100.506
1986.3209,100.488
1987.2852,100.465
1988.2494,100.442
1989.2136,100.422
1990.1779,100.41
1991.1421,100.411
1992.1063,100.428
1993.0706,100.454
1994.0348,100.481
1994.9990,100.501
1995.9633,100.511
1996.9275,100.513
1997.8917,100.509
1998.8560,100.505
1999.8202,100.505
2000.7844,100.508
2001.7487,100.513
2002.7129,100.515
2003.6771,100.512
2004.6414,100.502
2005.6056,100.489
2006.5698,100.477
2007.5341,100.469
2008.4983,100.468
2009.4625,100.47
2010.4268,100.474
2011.3910,100.472
2012.3552,100.461
2013.3195,100.44
2014.2837,100.41
2015.2479,100.38
2016.2122,100.357
2017.1764,100.35
2018.1406,100.358
2019.1049,100.377
2020.0691,100.397
2021.0333,100.411
2021.9976,100.418
2022.9618,100.418
2023.9260,100.415
2024.8903,100.411
2025.8545,100.409
2026.8187,100.409
2027.7830,100.409
2028.7472,100.406
2029.7114,100.401
2030.6757,100.394
2031.6399,100.387
2032.6041,100.382
2033.5684,100.38
2034.5326,100.381
2035.4968,100.381
2036.4611,100.379
2037.4253,100.37
2038.3895,100.356
2039.3538,100.338
2040.3180,100.323
2041.2822,100.315
2042.2465,100.315
2043.2107,100.323
2044.1749,100.332
2045.1392,100.34
2046.1034,100.343
2047.0676,100.342
2048.0320,100.337
2048.9961,100.331
2049.9604,100.326
2050.9246,100.322
2051.8889,100.318
2052.8530,100.315
2053.8174,100.31
2054.7815,100.304
2055.7458,100.299
2056.7100,100.293
2057.6743,100.289
2058.6384,100.285
2059.6028,100.278
2060.5669,100.266
2061.5313,100.251
2062.4954,100.235
2063.4597,100.224
2064.4238,100.222
2065.3882,100.23
2066.3523,100.246
2067.3167,100.264
2068.2808,100.278
2069.2451,100.287
2070.2092,100.29
2071.1736,100.289
2072.1377,100.287
2073.1021,100.284
2074.0662,100.282
2075.0305,100.279
2075.9946,100.277
2076.9590,100.276
2077.9231,100.277
2078.8875,100.279
2079.8516,100.282
2080.8159,100.286
2081.7800,100.289
2082.7444,100.292
2083.7085,100.294
2084.6729,100.294
2085.6370,100.293
2086.6013,100.292
2087.5654,100.292
2088.5298,100.293
2089.4939,100.296
2090.4583,100.299
2091.4224,100.302
2092.3867,100.304
2093.3508,100.306
2094.3152,100.308
2095.2793,100.31
2096.2437,100.313
2097.2078,100.316
2098.1721,100.318
2099.1362,100.318
2100.1006,100.315
2101.0647,100.313
2102.0291,100.311
2102.9932,100.31
2103.9575,100.31
2104.9216,100.311
2105.8860,100.312
2106.8501,100.312
2107.8145,100.31
2108.7786,100.307
2109.7429,100.301
2110.7070,100.294
2111.6714,100.287
2112.6355,100.282
2113.5999,100.28
2114.5640,100.282
2115.5283,100.287
2116.4924,100.294
2117.4568,100.3
2118.4209,100.303
2119.3853,100.303
2120.3494,100.301
2121.3137,100.298
2122.2778,100.294
2123.2422,100.289
2124.2063,100.285
2125.1707,100.281
2126.1348,100.279
2127.0991,100.281
2128.0632,100.288
2129.0276,100.297
2129.9917,100.306
2130.9561,100.312
2131.9202,100.312
2132.8845,100.308
2133.8486,100.3
2134.8130,100.292
2135.7771,100.288
2136.7415,100.288
2137.7056,100.294
2138.6699,100.304
2139.6340,100.315
2140.5984,100.324
2141.5625,100.33
2142.5269,100.332
2143.4910,100.334
2144.4553,100.336
2145.4194,100.342
2146.3838,100.35
2147.3479,100.358
2148.3123,100.366
2149.2764,100.37
2150.2407,100.371
2151.2048,100.368
2152.1692,100.365
2153.1333,100.362
2154.0977,100.361
2155.0618,100.362
2156.0261,100.366
2156.9902,100.372
2157.9546,100.378
2158.9187,100.384
2159.8831,100.389
2160.8472,100.393
2161.8115,100.398
2162.7756,100.404
2163.7400,100.412
2164.7041,100.419
2165.6685,100.424
2166.6326,100.427
2167.5969,100.426
2168.5610,100.423
2169.5254,100.421
2170.4895,100.421
2171.4539,100.424
2172.4180,100.43
2173.3823,100.437
2174.3464,100.443
2175.3108,100.448
2176.2749,100.453
2177.2393,100.458
2178.2034,100.464
2179.1677,100.469
2180.1318,100.472
2181.0962,100.47
2182.0603,100.463
2183.0247,100.454
2183.9888,100.446
2184.9531,100.441
2185.9172,100.443
2186.8816,100.45
2187.8457,100.46
2188.8101,100.47
2189.7742,100.478
2190.7385,100.482
2191.7026,100.482
2192.6670,100.481
2193.6311,100.48
2194.5955,100.479
2195.5596,100.478
2196.5239,100.476
2197.4880,100.472
2198.4524,100.467
2199.4165,100.462
2200.3809,100.458
2201.3450,100.458
2202.3093,100.461
2203.2734,100.465
2204.2378,100.468
2205.2019,100.47
2206.1663,100.47
2207.1304,100.468
2208.0947,100.466
2209.0588,100.464
2210.0232,100.463
2210.9873,100.461
2211.9517,100.457
2212.9158,100.452
2213.8801,100.447
2214.8442,100.444
2215.8086,100.442
2216.7727,100.442
2217.7371,100.441
2218.7012,100.44
2219.6655,100.436
2220.6296,100.43
2221.5940,100.423
2222.5581,100.417
2223.5225,100.413
2224.4866,100.41
2225.4509,100.407
2226.4150,100.404
2227.3794,100.399
2228.3435,100.393
2229.3079,100.385
2230.2720,100.377
2231.2363,100.368
2232.2004,100.359
2233.1648,100.351
2234.1289,100.343
2235.0933,100.337
2236.0574,100.332
2237.0217,100.328
2237.9858,100.324
2238.9502,100.318
2239.9143,100.308
2240.8787,100.296
2241.8428,100.283
2242.8071,100.269
2243.7712,100.257
2244.7356,100.248
2245.6997,100.24
2246.6641,100.232
2247.6282,100.224
2248.5925,100.215
2249.5566,100.204
2250.5210,100.191
2251.4851,100.175
2252.4495,100.157
2253.4136,100.136
2254.3779,100.116
2255.3420,100.096
2256.3064,100.078
2257.2705,100.063
2258.2349,100.048
2259.1990,100.033
2260.1633,100.016
2261.1274,99.9982
2262.0918,99.9799
2263.0559,99.9627
2264.0203,99.9483
2264.9844,99.938
2265.9487,99.9319
2266.9128,99.9288
2267.8772,99.9264
2268.8413,99.9222
2269.8057,99.9148
2270.7698,99.9046
2271.7341,99.8935
2272.6982,99.8839
2273.6626,99.8775
2274.6267,99.8755
2275.5911,99.8779
2276.5552,99.8849
2277.5195,99.8965
2278.4836,99.9125
2279.4480,99.9311
2280.4121,99.9496
2281.3765,99.9639
2282.3406,99.9696
2283.3049,99.9628
2284.2690,99.9414
2285.2334,99.9054
2286.1975,99.8577
2287.1619,99.8027
2288.1260,99.7451
2289.0903,99.6877
2290.0544,99.6315
2291.0188,99.5765
2291.9829,99.5242
2292.9473,99.4781
2293.9114,99.4426
2294.8757,99.4203
2295.8398,99.4104
2296.8042,99.4099
2297.7683,99.4167
2298.7327,99.4331
2299.6968,99.4647
2300.6611,99.5168
2301.6252,99.5882
2302.5896,99.6681
2303.5537,99.7388
2304.5181,99.7832
2305.4822,99.7945
2306.4465,99.7817
2307.4106,99.7683
2308.3750,99.7831
2309.3391,99.8459
2310.3035,99.9576
2311.2676,100.099
2312.2319,100.239
2313.1960,100.354
2314.1604,100.435
2315.1245,100.496
2316.0889,100.559
2317.0530,100.645
2318.0173,100.763
2318.9814,100.894
2319.9458,101.001
2320.9099,101.028
2321.8743,100.931
2322.8384,100.698
2323.8027,100.369
2324.7668,100.022
2325.7312,99.7442
2326.6953,99.6002
2327.6597,99.6023
2328.6238,99.7072
2329.5881,99.832
2330.5522,99.8894
2331.5166,99.8293
2332.4807,99.6604
2333.4451,99.4491
2334.4092,99.2554
2335.3735,99.1178
2336.3376,99.0384
2337.3020,98.9851
2338.2661,98.9132
2339.2305,98.795
2340.1946,98.6469
2341.1589,98.5487
2342.1230,98.6282
2343.0874,98.9651
2344.0515,99.4375
2345.0159,99.7486
2345.9800,99.7102
2346.9443,99.4105
2347.9084,99.0895
2348.8728,98.9484
2349.8369,99.0512
2350.8013,99.316
2351.7654,99.564
2352.7297,99.6264
2353.6938,99.4634
2354.6582,99.1742
2355.6223,98.8611
2356.5867,98.5383
2357.5508,98.1974
2358.5151,97.8945
2359.4792,97.722
2360.4436,97.7162
2361.4077,97.8341
2362.3721,98.0228
2363.3362,98.2764
2364.3005,98.6195
2365.2646,99.0557
2366.2290,99.5485
2367.1931,100.043
2368.1575,100.494
2369.1216,100.882
2370.0859,101.201
2371.0500,101.453
2372.0144,101.642
2372.9785,101.767
2373.9429,101.822
2374.9070,101.797
2375.8713,101.69
2376.8354,101.505
2377.7998,101.264
2378.7639,100.997
2379.7283,100.737
2380.6924,100.513
2381.6567,100.343
2382.6208,100.233
2383.5852,100.175
2384.5493,100.16
2385.5137,100.17
2386.4778,100.195
2387.4421,100.222
2388.4063,100.245
2389.3706,100.261
2390.3347,100.27
2391.2991,100.273
2392.2632,100.273
2393.2275,100.274
2394.1917,100.276
2395.1560,100.281
2396.1201,100.288
2397.0845,100.294
2398.0486,100.299
2399.0129,100.301
2399.9771,100.302
2400.9414,100.303
2401.9055,100.305
2402.8699,100.308
2403.8340,100.313
2404.7983,100.32
2405.7625,100.326
2406.7268,100.331
2407.6909,100.333
2408.6553,100.332
2409.6194,100.329
2410.5837,100.327
2411.5479,100.325
2412.5122,100.326
2413.4763,100.328
2414.4407,100.331
2415.4048,100.334
2416.3691,100.338
2417.3333,100.341
2418.2976,100.345
2419.2617,100.347
2420.2261,100.347
2421.1902,100.343
2422.1545,100.336
2423.1187,100.327
2424.0830,100.32
2425.0471,100.318
2426.0115,100.322
2426.9756,100.33
2427.9399,100.34
2428.9041,100.348
2429.8684,100.351
2430.8325,100.351
2431.7969,100.347
2432.7610,100.342
2433.7253,100.338
2434.6895,100.335
2435.6538,100.333
2436.6179,100.333
2437.5823,100.336
2438.5464,100.342
2439.5107,100.35
2440.4749,100.36
2441.4392,100.369
2442.4033,100.376
2443.3677,100.378
2444.3318,100.377
2445.2961,100.374
2446.2603,100.37
2447.2246,100.366
2448.1887,100.363
2449.1531,100.36
2450.1172,100.357
2451.0815,100.354
2452.0457,100.35
2453.0100,100.348
2453.9741,100.347
2454.9385,100.348
2455.9026,100.351
2456.8669,100.355
2457.8311,100.356
2458.7954,100.356
2459.7595,100.352
2460.7239,100.348
2461.6880,100.343
2462.6523,100.34
2463.6165,100.339
2464.5808,100.339
2465.5449,100.337
2466.5093,100.335
2467.4734,100.329
2468.4377,100.322
2469.4019,100.313
2470.3662,100.304
2471.3303,100.298
2472.2947,100.294
2473.2588,100.292
2474.2231,100.293
2475.1873,100.294
2476.1516,100.295
2477.1157,100.294
2478.0801,100.291
2479.0442,100.289
2480.0085,100.287
2480.9727,100.287
2481.9370,100.288
2482.9011,100.288
2483.8655,100.287
2484.8296,100.284
2485.7939,100.28
2486.7581,100.276
2487.7224,100.274
2488.6865,100.274
2489.6509,100.277
2490.6150,100.279
2491.5793,100.278
2492.5435,100.273
2493.5078,100.265
2494.4719,100.257
2495.4363,100.252
2496.4004,100.253
2497.3647,100.261
2498.3289,100.273
2499.2932,100.284
2500.2573,100.29
2501.2217,100.289
2502.1858,100.283
2503.1501,100.277
2504.1143,100.274
2505.0786,100.276
2506.0427,100.28
2507.0071,100.283
2507.9712,100.281
2508.9355,100.276
2509.8997,100.268
2510.8640,100.262
2511.8281,100.26
2512.7925,100.262
2513.7566,100.269
2514.7209,100.279
2515.6851,100.29
2516.6494,100.3
2517.6135,100.306
2518.5779,100.306
2519.5420,100.299
2520.5063,100.289
2521.4705,100.279
2522.4348,100.272
2523.3989,100.271
2524.3633,100.275
2525.3274,100.282
2526.2917,100.289
2527.2559,100.294
2528.2202,100.299
2529.1843,100.302
2530.1487,100.304
2531.1128,100.305
2532.0771,100.302
2533.0413,100.297
2534.0056,100.29
2534.9697,100.282
2535.9341,100.278
2536.8982,100.278
2537.8625,100.282
2538.8267,100.289
2539.7910,100.296
2540.7551,100.302
2541.7195,100.308
2542.6836,100.314
2543.6479,100.319
2544.6121,100.326
2545.5764,100.332
2546.5405,100.337
2547.5049,100.338
2548.4690,100.335
2549.4333,100.33
2550.3975,100.323
2551.3618,100.318
2552.3259,100.317
2553.2903,100.32
2554.2544,100.328
2555.2188,100.337
2556.1829,100.346
2557.1472,100.354
2558.1113,100.36
2559.0757,100.365
2560.0398,100.369
2561.0042,100.371
2561.9683,100.37
2562.9326,100.364
2563.8967,100.355
2564.8611,100.346
2565.8252,100.339
2566.7896,100.339
2567.7537,100.345
2568.7180,100.357
2569.6821,100.37
2570.6465,100.381
2571.6106,100.386
2572.5750,100.385
2573.5391,100.379
2574.5034,100.37
2575.4675,100.363
2576.4319,100.358
2577.3960,100.358
2578.3604,100.36
2579.3245,100.364
2580.2888,100.368
2581.2529,100.371
2582.2173,100.371
2583.1814,100.369
2584.1458,100.366
2585.1099,100.361
2586.0742,100.354
2587.0383,100.346
2588.0027,100.337
2588.9668,100.329
2589.9312,100.322
2590.8953,100.319
2591.8596,100.318
2592.8237,100.319
2593.7881,100.319
2594.7522,100.317
2595.7166,100.315
2596.6807,100.312
2597.6450,100.311
2598.6091,100.313
2599.5735,100.316
2600.5376,100.319
2601.5020,100.319
2602.4661,100.317
2603.4304,100.311
2604.3945,100.304
2605.3589,100.299
2606.3230,100.297
2607.2874,100.298
2608.2515,100.301
2609.2158,100.304
2610.1799,100.305
2611.1443,100.301
2612.1084,100.295
2613.0728,100.287
2614.0369,100.28
2615.0012,100.276
2615.9653,100.276
2616.9297,100.278
2617.8938,100.281
2618.8582,100.28
2619.8223,100.275
2620.7866,100.264
2621.7507,100.251
2622.7151,100.239
2623.6792,100.231
2624.6436,100.229
2625.6077,100.231
2626.5720,100.234
2627.5361,100.235
2628.5005,100.234
2629.4646,100.23
2630.4290,100.225
2631.3931,100.221
2632.3574,100.217
2633.3215,100.215
2634.2859,100.214
2635.2500,100.214
2636.2144,100.216
2637.1785,100.219
2638.1428,100.222
2639.1069,100.224
2640.0713,100.225
2641.0354,100.225
2641.9998,100.225
2642.9639,100.223
2643.9282,100.218
2644.8923,100.211
2645.8567,100.203
2646.8208,100.197
2647.7852,100.193
2648.7493,100.192
2649.7136,100.193
2650.6777,100.195
2651.6421,100.196
2652.6062,100.198
2653.5706,100.202
2654.5347,100.21
2655.4990,100.222
2656.4631,100.233
2657.4275,100.241
2658.3916,100.244
2659.3560,100.241
2660.3201,100.236
2661.2844,100.235
2662.2485,100.239
2663.2129,100.251
2664.1770,100.269
2665.1414,100.29
2666.1055,100.309
2667.0698,100.325
2668.0339,100.335
2668.9983,100.341
2669.9624,100.343
2670.9268,100.344
2671.8909,100.344
2672.8552,100.347
2673.8193,100.353
2674.7837,100.363
2675.7478,100.374
2676.7122,100.384
2677.6763,100.39
2678.6406,100.391
2679.6047,100.386
2680.5691,100.378
2681.5332,100.372
2682.4976,100.37
2683.4617,100.371
2684.4260,100.374
2685.3901,100.377
2686.3545,100.378
2687.3186,100.376
2688.2830,100.373
2689.2471,100.372
2690.2114,100.373
2691.1755,100.377
2692.1399,100.383
2693.1040,100.389
2694.0684,100.394
2695.0325,100.397
2695.9968,100.398
2696.9609,100.397
2697.9253,100.393
2698.8894,100.388
2699.8538,100.383
2700.8179,100.378
2701.7822,100.374
2702.7463,100.37
2703.7107,100.367
2704.6748,100.36
2705.6392,100.35
2706.6033,100.336
2707.5676,100.319
2708.5317,100.304
2709.4961,100.291
2710.4602,100.283
2711.4246,100.278
2712.3887,100.272
2713.3530,100.261
2714.3171,100.245
2715.2815,100.225
2716.2456,100.205
2717.2100,100.188
2718.1741,100.176
2719.1384,100.169
2720.1025,100.163
2721.0669,100.156
2722.0310,100.148
2722.9954,100.138
2723.9595,100.125
2724.9238,100.113
2725.8879,100.102
2726.8523,100.093
2727.8164,100.087
2728.7808,100.08
2729.7449,100.071
2730.7092,100.06
2731.6733,100.046
2732.6377,100.032
2733.6018,100.02
2734.5662,100.01
2735.5303,100
2736.4946,99.9874
2737.4587,99.971
2738.4231,99.9522
2739.3872,99.9344
2740.3516,99.9203
2741.3157,99.9112
2742.2800,99.9063
2743.2441,99.9044
2744.2085,99.9047
2745.1726,99.9069
2746.1370,99.9101
2747.1011,99.9123
2748.0654,99.9108
2749.0295,99.9035
2749.9939,99.8904
2750.9580,99.8742
2751.9224,99.8583
2752.8865,99.8452
2753.8508,99.8353
2754.8149,99.8266
2755.7793,99.8167
2756.7434,99.8037
2757.7078,99.7874
2758.6719,99.7686
2759.6362,99.7488
2760.6003,99.7292
2761.5647,99.7106
2762.5288,99.6935
2763.4932,99.6776
2764.4573,99.6621
2765.4216,99.6458
2766.3857,99.6285
2767.3501,99.6109
2768.3142,99.5947
2769.2786,99.5811
2770.2427,99.5695
2771.2070,99.557
2772.1711,99.5395
2773.1355,99.514
2774.0996,99.4802
2775.0640,99.441
2776.0281,99.4007
2776.9924,99.3626
2777.9565,99.327
2778.9209,99.2919
2779.8850,99.2543
2780.8494,99.2128
2781.8135,99.1688
2782.7778,99.125
2783.7419,99.0846
2784.7063,99.0503
2785.6704,99.0234
2786.6348,98.9974
2787.5989,98.9686
2788.5632,98.9345
2789.5273,98.8943
2790.4917,98.8497
2791.4558,98.8035
2792.4202,98.759
2793.3843,98.718
2794.3486,98.6799
2795.3127,98.642
2796.2771,98.601
2797.2412,98.5551
2798.2056,98.5047
2799.1697,98.452
2800.1340,98.3993
2801.0981,98.3476
2802.0625,98.296
2803.0266,98.2431
2803.9910,98.1881
2804.9551,98.1312
2805.9194,98.0729
2806.8835,98.0131
2807.8479,97.9501
2808.8120,97.8812
2809.7764,97.8044
2810.7405,97.7189
2811.7048,97.6261
2812.6689,97.5285
2813.6333,97.4286
2814.5974,97.3283
2815.5618,97.2278
2816.5259,97.1254
2817.4902,97.0179
2818.4543,96.9011
2819.4187,96.7712
2820.3828,96.6263
2821.3472,96.4665
2822.3113,96.2944
2823.2756,96.1133
2824.2397,95.9253
2825.2041,95.7304
2826.1682,95.5271
2827.1326,95.3131
2828.0967,95.0869
2829.0610,94.8485
2830.0251,94.5994
2830.9895,94.3412
2831.9536,94.0757
2832.9180,93.8038
2833.8821,93.5267
2834.8464,93.2454
2835.8105,92.9621
2836.7749,92.6794
2837.7390,92.4005
2838.7034,92.1286
2839.6675,91.8658
2840.6318,91.613
2841.5959,91.3688
2842.5603,91.1298
2843.5244,90.8919
2844.4888,90.6522
2845.4529,90.4109
2846.4172,90.1735
2847.3813,89.9488
2848.3457,89.7465
2849.3098,89.5726
2850.2742,89.4263
2851.2383,89.3004
2852.2026,89.1839
2853.1667,89.0671
2854.1311,88.9452
2855.0952,88.8188
2856.0596,88.6916
2857.0237,88.5664
2857.9880,88.4424
2858.9521,88.3152
2859.9165,88.1795
2860.8806,88.032
2861.8450,87.8731
2862.8091,87.7061
2863.7734,87.5359
2864.7375,87.366
2865.7019,87.1982
2866.6660,87.0328
2867.6304,86.8696
2868.5945,86.709
2869.5588,86.552
2870.5229,86.3995
2871.4873,86.2516
2872.4514,86.1074
2873.4158,85.9659
2874.3799,85.8272
2875.3442,85.6929
2876.3083,85.5651
2877.2727,85.445
2878.2368,85.3321
2879.2012,85.2248
2880.1653,85.1231
2881.1296,85.0303
2882.0938,84.9532
2883.0581,84.8998
2884.0222,84.8757
2884.9866,84.8811
2885.9507,84.9101
2886.9150,84.9524
2887.8792,84.9971
2888.8435,85.0355
2889.8076,85.0643
2890.7720,85.0857
2891.7361,85.1048
2892.7004,85.1255
2893.6646,85.1448
2894.6289,85.1511
2895.5930,85.1281
2896.5574,85.0642
2897.5215,84.9613
2898.4858,84.8377
2899.4500,84.7217
2900.4143,84.6383
2901.3784,84.5975
2902.3428,84.5902
2903.3069,84.5944
2904.2712,84.5873
2905.2354,84.5543
2906.1997,84.4912
2907.1638,84.4012
2908.1282,84.2887
2909.0923,84.1569
2910.0566,84.009
2911.0208,83.8494
2911.9851,83.6843
2912.9492,83.5201
2913.9136,83.3604
2914.8777,83.2058
2915.8420,83.0547
2916.8062,82.9053
2917.7705,82.757
2918.7346,82.6104
2919.6990,82.4667
2920.6631,82.3276
2921.6274,82.195
2922.5916,82.0701
2923.5559,81.9535
2924.5200,81.8441
2925.4844,81.74
2926.4485,81.6401
2927.4128,81.5453
2928.3770,81.459
2929.3413,81.3857
2930.3054,81.33
2931.2698,81.2952
2932.2339,81.2833
2933.1982,81.296
2934.1624,81.3351
2935.1267,81.4022
2936.0908,81.4979
2937.0552,81.6211
2938.0193,81.7695
2938.9836,81.9401
2939.9478,82.1313
2940.9121,82.3433
2941.8762,82.5774
2942.8406,82.8347
2943.8047,83.1131
2944.7690,83.4062
2945.7332,83.7034
2946.6975,83.9935
2947.6616,84.2674
2948.6260,84.5215
2949.5901,84.758
2950.5544,84.9818
2951.5186,85.1983
2952.4829,85.4104
2953.4470,85.6184
2954.4114,85.8215
2955.3755,86.0194
2956.3398,86.2126
2957.3040,86.4021
2958.2683,86.5879
2959.2324,86.7692
2960.1968,86.9449
2961.1609,87.1143
2962.1252,87.278
2963.0894,87.4371
2964.0537,87.5922
2965.0178,87.7427
2965.9822,87.8877
2966.9463,88.0272
2967.9106,88.1647
2968.8748,88.3066
2969.8391,88.461
2970.8032,88.6347
2971.7676,88.8306
2972.7317,89.0472
2973.6960,89.2794
2974.6602,89.5213
2975.6245,89.7679
2976.5886,90.0158
2977.5530,90.2634
2978.5171,90.5103
2979.4814,90.7556
2980.4456,90.9966
2981.4099,91.2266
2982.3740,91.4356
2983.3384,91.6135
2984.3025,91.7577
2985.2668,91.8793
2986.2310,92.0048
2987.1953,92.1685
2988.1594,92.3976
2989.1238,92.6984
2990.0879,93.0504
2991.0522,93.414
2992.0164,93.7478
2992.9807,94.0258
2993.9448,94.2455
2994.9092,94.4248
2995.8733,94.5889
2996.8376,94.7581
2997.8018,94.9407
2998.7661,95.1342
2999.7302,95.3316
3000.6946,95.5276
3001.6587,95.7218
3002.6230,95.9179
3003.5872,96.1208
3004.5515,96.3334
3005.5156,96.5539
3006.4800,96.7767
3007.4441,96.9942
3008.4084,97.2005
3009.3726,97.3941
3010.3369,97.5785
3011.3010,97.7605
3012.2654,97.946
3013.2295,98.1362
3014.1938,98.3269
3015.1580,98.5113
3016.1223,98.6831
3017.0864,98.8397
3018.0508,98.9823
3019.0149,99.1139
3019.9792,99.2369
3020.9434,99.3517
3021.9077,99.4587
3022.8718,99.5586
3023.8362,99.6537
3024.8003,99.746
3025.7646,99.8352
3026.7288,99.919
3027.6931,99.9938
3028.6572,100.058
3029.6216,100.114
3030.5857,100.168
3031.5500,100.19
3032.5142,100.215
3033.4785,100.243
3034.4426,100.27
3035.4070,100.294
3036.3711,100.311
3037.3354,100.323
3038.2996,100.329
3039.2639,100.326
3040.2280,100.311
3041.1924,100.281
3042.1565,100.237
3043.1208,100.182
3044.0850,100.124
3045.0493,100.069
3046.0134,100.021
3046.9778,99.9789
3047.9419,99.9402
3048.9063,99.8989
3049.8704,99.8492
3050.8347,99.7874
3051.7988,99.7133
3052.7632,99.6308
3053.7273,99.5467
3054.6917,99.4676
3055.6558,99.3983
3056.6201,99.3391
3057.5842,99.286
3058.5486,99.2322
3059.5127,99.1708
3060.4771,99.0966
3061.4412,99.0089
3062.4055,98.912
3063.3696,98.8141
3064.3340,98.7247
3065.2981,98.65
3066.2625,98.5899
3067.2266,98.5388
3068.1909,98.4881
3069.1550,98.4314
3070.1194,98.3664
3071.0835,98.2949
3072.0479,98.2197
3073.0120,98.1425
3073.9763,98.0625
3074.9404,97.9785
3075.9048,97.8905
3076.8689,97.8006
3077.8333,97.7121
3078.7974,97.6277
3079.7617,97.5484
3080.7258,97.4731
3081.6902,97.4002
3082.6543,97.3281
3083.6187,97.256
3084.5828,97.1831
3085.5471,97.1089
3086.5112,97.0326
3087.4756,96.9537
3088.4397,96.8718
3089.4041,96.7868
3090.3682,96.6985
3091.3325,96.6067
3092.2966,96.5113
3093.2610,96.4127
3094.2251,96.3107
3095.1895,96.2057
3096.1536,96.0982
3097.1179,95.99
3098.0820,95.8838
3099.0464,95.7822
3100.0105,95.6865
3100.9749,95.5957
3101.9390,95.507
3102.9033,95.418
3103.8674,95.3281
3104.8318,95.2384
3105.7959,95.15
3106.7603,95.0616
3107.7244,94.9691
3108.6887,94.8678
3109.6528,94.755
3110.6172,94.6324
3111.5813,94.5049
3112.5457,94.3782
3113.5098,94.256
3114.4741,94.1386
3115.4382,94.0248
3116.4026,93.9134
3117.3667,93.8049
3118.3311,93.7006
3119.2952,93.6014
3120.2595,93.5063
3121.2236,93.4131
3122.1880,93.3193
3123.1521,93.2238
3124.1165,93.1269
3125.0806,93.0293
3126.0449,92.9304
3127.0090,92.8282
3127.9734,92.7198
3128.9375,92.6036
3129.9019,92.4811
3130.8660,92.3571
3131.8303,92.2374
3132.7944,92.1271
3133.7588,92.0274
3134.7229,91.9358
3135.6873,91.8471
3136.6514,91.7564
3137.6157,91.6601
3138.5798,91.557
3139.5442,91.4474
3140.5083,91.3326
3141.4727,91.2134
3142.4368,91.091
3143.4011,90.9662
3144.3652,90.8401
3145.3296,90.7141
3146.2937,90.59
3147.2581,90.47
3148.2222,90.3557
3149.1865,90.2474
3150.1506,90.1432
3151.1150,90.0393
3152.0791,89.9313
3153.0435,89.8164
3154.0076,89.6945
3154.9719,89.5678
3155.9360,89.4395
3156.9004,89.3123
3157.8645,89.1872
3158.8289,89.0646
3159.7930,88.9447
3160.7573,88.8273
3161.7214,88.7124
3162.6858,88.5986
3163.6499,88.484
3164.6143,88.367
3165.5784,88.2475
3166.5427,88.1268
3167.5068,88.0069
3168.4712,87.8882
3169.4353,87.8082
3170.3997,87.6848
3171.3638,87.5542
3172.3281,87.416
3173.2922,87.2735
3174.2566,87.1322
3175.2207,86.9977
3176.1851,86.873
3177.1492,86.7577
3178.1135,86.6484
3179.0776,86.5404
3180.0420,86.4299
3181.0061,86.3158
3181.9705,86.1992
3182.9346,86.0829
3183.8989,85.9694
3184.8630,85.859
3185.8274,85.7494
3186.7915,85.6367
3187.7559,85.5177
3188.7200,85.3918
3189.6843,85.2615
3190.6484,85.1309
3191.6128,85.0034
3192.5769,84.8802
3193.5413,84.7597
3194.5054,84.6401
3195.4697,84.5203
3196.4338,84.4013
3197.3982,84.2853
3198.3623,84.1736
3199.3267,84.0661
3200.2908,83.9612
3201.2551,83.8569
3202.2192,83.7514
3203.1836,83.6435
3204.1477,83.5321
3205.1121,83.4167
3206.0762,83.2978
3207.0405,83.177
3208.0046,83.057
3208.9690,82.9399
3209.9331,82.8262
3210.8975,82.7151
3211.8616,82.6057
3212.8259,82.4985
3213.7900,82.3951
3214.7544,82.2971
3215.7185,82.2037
3216.6829,82.1115
3217.6470,82.016
3218.6113,81.9142
3219.5754,81.8066
3220.5398,81.697
3221.5039,81.5895
3222.4683,81.4864
3223.4324,81.387
3224.3967,81.2891
3225.3608,81.1905
3226.3252,81.0912
3227.2893,80.9932
3228.2537,80.8988
3229.2178,80.8095
3230.1821,80.7244
3231.1462,80.6411
3232.1106,80.5567
3233.0747,80.4697
3234.0391,80.3806
3235.0032,80.2922
3235.9675,80.2071
3236.9316,80.1265
3237.8960,80.0484
3238.8601,79.9683
3239.8245,79.8815
3240.7886,79.7857
3241.7529,79.6833
3242.7170,79.5807
3243.6814,79.4862
3244.6455,79.4053
3245.6099,79.3382
3246.5740,79.2789
3247.5383,79.2185
3248.5024,79.1493
3249.4668,79.0678
3250.4309,78.9761
3251.3953,78.8807
3252.3594,78.7893
3253.3237,78.7081
3254.2878,78.6393
3255.2522,78.5808
3256.2163,78.528
3257.1807,78.4763
3258.1448,78.4229
3259.1091,78.3671
3260.0732,78.3095
3261.0376,78.2499
3262.0017,78.1866
3262.9661,78.1163
3263.9302,78.0366
3264.8945,77.947
3265.8586,77.8505
3266.8230,77.7523
3267.7871,77.6576
3268.7515,77.5706
3269.7156,77.4932
3270.6799,77.426
3271.6440,77.3692
3272.6084,77.3221
3273.5725,77.2827
3274.5369,77.2477
3275.5010,77.2127
3276.4653,77.1745
3277.4294,77.1325
3278.3938,77.0888
3279.3579,77.046
3280.3223,77.0056
3281.2864,76.966
3282.2507,76.9238
3283.2148,76.8756
3284.1792,76.8199
3285.1433,76.7576
3286.1077,76.6904
3287.0718,76.6203
3288.0361,76.5487
3289.0002,76.4777
3289.9646,76.4109
3290.9287,76.3526
3291.8931,76.3066
3292.8572,76.2738
3293.8215,76.2507
3294.7856,76.2315
3295.7500,76.2097
3296.7141,76.1809
3297.6785,76.1438
3298.6426,76.0991
3299.6069,76.0489
3300.5710,75.9948
3301.5354,75.9381
3302.4995,75.8801
3303.4639,75.8232
3304.4280,75.7709
3305.3923,75.7269
3306.3564,75.6942
3307.3208,75.6731
3308.2849,75.6613
3309.2493,75.6544
3310.2134,75.6476
3311.1777,75.638
3312.1418,75.6249
3313.1062,75.6097
3314.0703,75.5935
3315.0347,75.5767
3315.9988,75.5577
3316.9631,75.5345
3317.9272,75.5061
3318.8916,75.4729
3319.8557,75.4372
3320.8201,75.4021
3321.7842,75.3696
3322.7485,75.341
3323.7126,75.3168
3324.6770,75.2978
3325.6411,75.2854
3326.6055,75.2804
3327.5696,75.2818
3328.5339,75.2854
3329.4980,75.2849
3330.4624,75.2741
3331.4265,75.2502
3332.3909,75.216
3333.3550,75.1796
3334.3193,75.151
3335.2834,75.1368
3336.2478,75.1369
3337.2119,75.1444
3338.1763,75.15
3339.1404,75.1477
3340.1047,75.1377
3341.0688,75.1248
3342.0332,75.1142
3342.9973,75.1078
3343.9617,75.1037
3344.9258,75.0988
3345.8901,75.093
3346.8542,75.0897
3347.8186,75.0942
3348.7827,75.109
3349.7471,75.1313
3350.7112,75.154
3351.6755,75.1698
3352.6396,75.1752
3353.6040,75.172
3354.5681,75.1657
3355.5325,75.162
3356.4966,75.1645
3357.4609,75.1731
3358.4250,75.1852
3359.3894,75.1965
3360.3535,75.2028
3361.3179,75.2015
3362.2820,75.1933
3363.2463,75.1831
3364.2104,75.179
3365.1748,75.1889
3366.1389,75.2161
3367.1033,75.2575
3368.0674,75.305
3369.0317,75.3498
3369.9958,75.3868
3370.9602,75.4167
3371.9243,75.4435
3372.8887,75.4712
3373.8528,75.5013
3374.8171,75.5335
3375.7813,75.5669
3376.7456,75.6021
3377.7097,75.6403
3378.6741,75.6812
3379.6382,75.7225
3380.6025,75.76
3381.5667,75.7915
3382.5310,75.8178
3383.4951,75.8435
3384.4595,75.8729
3385.4236,75.9072
3386.3879,75.9435
3387.3521,75.978
3388.3164,76.009
3389.2805,76.0389
3390.2449,76.0726
3391.2090,76.1136
3392.1733,76.1616
3393.1375,76.213
3394.1018,76.2648
3395.0659,76.3167
3396.0303,76.3709
3396.9944,76.4292
3397.9587,76.4905
3398.9229,76.5506
3399.8872,76.6065
3400.8513,76.6585
3401.8157,76.7113
3402.7798,76.7702
3403.7441,76.8369
3404.7083,76.9086
3405.6726,76.9795
3406.6367,77.0455
3407.6011,77.1062
3408.5652,77.1646
3409.5295,77.224
3410.4937,77.285
3411.4580,77.3454
3412.4221,77.4019
3413.3865,77.4524
3414.3506,77.4974
3415.3149,77.5393
3416.2791,77.581
3417.2434,77.6259
3418.2075,77.6786
3419.1719,77.7447
3420.1360,77.8282
3421.1003,77.9289
3422.0645,78.0399
3423.0288,78.1502
3423.9929,78.2494
3424.9573,78.3323
3425.9214,78.4012
3426.8857,78.4641
3427.8499,78.5308
3428.8142,78.6078
3429.7783,78.696
3430.7427,78.7911
3431.7068,78.8872
3432.6711,78.9803
3433.6353,79.0698
3434.5996,79.1574
3435.5637,79.2448
3436.5281,79.3317
3437.4922,79.4159
3438.4565,79.4943
3439.4207,79.564
3440.3850,79.6245
3441.3491,79.678
3442.3135,79.7296
3443.2776,79.7867
3444.2419,79.8576
3445.2061,79.9497
3446.1704,80.0662
3447.1345,80.2037
3448.0989,80.3527
3449.0630,80.5016
3450.0273,80.6415
3450.9915,80.7677
3451.9558,80.8787
3452.9199,80.975
3453.8843,81.0588
3454.8484,81.1334
3455.8127,81.2035
3456.7769,81.2734
3457.7412,81.3458
3458.7053,81.4219
3459.6697,81.5018
3460.6338,81.5855
3461.5981,81.6735
3462.5623,81.7664
3463.5266,81.8648
3464.4907,81.97
3465.4551,82.0839
3466.4192,82.2075
3467.3835,82.3392
3468.3477,82.4731
3469.3120,82.6
3470.2761,82.7123
3471.2405,82.8086
3472.2046,82.8954
3473.1689,82.984
3474.1331,83.0833
3475.0974,83.1932
3476.0615,83.3053
3477.0259,83.4087
3477.9900,83.4988
3478.9543,83.5806
3479.9185,83.6659
3480.8828,83.7649
3481.8469,83.8789
3482.8113,83.999
3483.7754,84.1145
3484.7397,84.221
3485.7039,84.3237
3486.6682,84.4332
3487.6323,84.5579
3488.5967,84.6975
3489.5608,84.8429
3490.5251,84.9818
3491.4893,85.106
3492.4536,85.2157
3493.4177,85.3181
3494.3821,85.4223
3495.3462,85.5322
3496.3105,85.6431
3497.2747,85.7441
3498.2390,85.8272
3499.2031,85.895
3500.1675,85.9636
3501.1316,86.057
3502.0959,86.1945
3503.0601,86.3743
3504.0244,86.5713
3504.9885,86.7529
3505.9529,86.9
3506.9170,87.0138
3507.8813,87.11
3508.8455,87.2089
3509.8098,87.3247
3510.7739,87.4599
3511.7383,87.6074
3512.7024,87.7584
3513.6667,87.9083
3514.6309,88.0551
3515.5952,88.1967
3516.5593,88.3282
3517.5237,88.444
3518.4878,88.541
3519.4521,88.621
3520.4163,88.6912
3521.3806,88.7617
3522.3447,88.8428
3523.3091,88.9417
3524.2732,89.061
3525.2375,89.2006
3526.2017,89.3611
3527.1660,89.5424
3528.1301,89.7401
3529.0945,89.9424
3530.0586,90.1323
3531.0229,90.2974
3531.9871,90.4355
3532.9514,90.5554
3533.9155,90.6727
3534.8799,90.8034
3535.8440,90.9552
3536.8083,91.1226
3537.7725,91.2881
3538.7368,91.4321
3539.7009,91.5431
3540.6653,91.6217
3541.6294,91.6789
3542.5938,91.734
3543.5579,91.8118
3544.5222,91.9329
3545.4863,92.0985
3546.4507,92.2839
3547.4148,92.4565
3548.3792,92.6004
3549.3433,92.7238
3550.3076,92.8489
3551.2717,92.9979
3552.2361,93.1793
3553.2002,93.3812
3554.1646,93.5783
3555.1287,93.7487
3556.0930,93.8845
3557.0571,93.9897
3558.0215,94.0717
3558.9856,94.1357
3559.9500,94.184
3560.9141,94.2173
3561.8784,94.2383
3562.8425,94.2538
3563.8069,94.2779
3564.7710,94.3436
3565.7354,94.5059
3566.6995,94.795
3567.6638,95.1489
3568.6279,95.4518
3569.5923,95.6449
3570.5564,95.7503
3571.5208,95.8179
3572.4849,95.8829
3573.4492,95.9575
3574.4133,96.0396
3575.3777,96.1245
3576.3418,96.2107
3577.3062,96.2996
3578.2703,96.3917
3579.2346,96.4835
3580.1987,96.5688
3581.1631,96.6434
3582.1272,96.7084
3583.0916,96.7666
3584.0557,96.8179
3585.0200,96.8636
3585.9841,96.9204
3586.9485,97.0113
3587.9126,97.1227
3588.8770,97.2034
3589.8411,97.224
3590.8054,97.2026
3591.7695,97.1751
3592.7339,97.1671
3593.6980,97.188
3594.6624,97.2324
3595.6265,97.2837
3596.5908,97.3273
3597.5549,97.3656
3598.5193,97.4184
3599.4834,97.5063
3600.4478,97.6316
3601.4119,97.7733
3602.3762,97.9048
3603.3403,98.0146
3604.3047,98.11
3605.2688,98.2068
3606.2332,98.3215
3607.1973,98.4619
3608.1616,98.6145
3609.1257,98.7434
3610.0901,98.8134
3611.0542,98.8161
3612.0186,98.7733
3612.9829,98.7217
3613.9470,98.6926
3614.9114,98.7001
3615.8755,98.7414
3616.8398,98.8061
3617.8040,98.8849
3618.7683,98.9683
3619.7324,99.0311
3620.6968,99.0371
3621.6609,98.9794
3622.6252,98.8997
3623.5894,98.8577
3624.5537,98.8881
3625.5178,98.9796
3626.4822,99.09
3627.4463,99.1956
3628.4106,99.3122
3629.3748,99.4256
3630.3391,99.4773
3631.3032,99.4618
3632.2676,99.4375
3633.2317,99.4573
3634.1960,99.5307
3635.1602,99.6312
3636.1245,99.724
3637.0886,99.7889
3638.0530,99.8252
3639.0171,99.8406
3639.9814,99.8402
3640.9456,99.8252
3641.9099,99.8008
3642.8740,99.7803
3643.8384,99.776
3644.8025,99.7792
3645.7668,99.7466
3646.7310,99.6401
3647.6953,99.5328
3648.6594,99.6165
3649.6238,99.8977
3650.5879,100.131
3651.5522,100.188
3652.5164,100.135
3653.4807,100.07
3654.4448,100.034
3655.4092,100.024
3656.3733,100.016
3657.3376,99.9961
3658.3018,99.9641
3659.2661,99.9378
3660.2302,99.9349
3661.1946,99.9546
3662.1587,99.9788
3663.1230,99.9911
3664.0872,99.9937
3665.0515,100.001
3666.0156,100.015
3666.9800,100.015
3667.9441,99.9735
3668.9084,99.9025
3669.8726,99.8474
3670.8369,99.8326
3671.8010,99.8465
3672.7654,99.8646
3673.7295,99.8639
3674.6938,99.8485
3675.6580,99.8536
3676.6223,99.8832
3677.5864,99.8986
3678.5508,99.8866
3679.5149,99.8674
3680.4792,99.8533
3681.4434,99.8368
3682.4077,99.8098
3683.3718,99.7816
3684.3362,99.7714
3685.3003,99.781
3686.2646,99.7763
3687.2288,99.709
3688.1931,99.5844
3689.1572,99.485
3690.1216,99.4689
3691.0857,99.5035
3692.0500,99.5409
3693.0142,99.571
3693.9785,99.6019
3694.9426,99.6396
3695.9070,99.6859
3696.8711,99.7418
3697.8354,99.8065
3698.7996,99.8734
3699.7639,99.9311
3700.7280,99.9699
3701.6924,99.986
3702.6565,99.978
3703.6208,99.9498
3704.5850,99.9149
3705.5493,99.8909
3706.5134,99.8833
3707.4778,99.8802
3708.4419,99.8722
3709.4063,99.8967
3710.3704,100.038
3711.3347,100.314
3712.2988,100.598
3713.2632,100.753
3714.2273,100.759
3715.1917,100.675
3716.1558,100.559
3717.1201,100.437
3718.0842,100.307
3719.0486,100.16
3720.0127,99.9988
3720.9771,99.8395
3721.9412,99.7057
3722.9055,99.6172
3723.8696,99.5831
3724.8340,99.5964
3725.7981,99.6352
3726.7625,99.6773
3727.7266,99.7158
3728.6909,99.7565
3729.6550,99.8005
3730.6194,99.8301
3731.5835,99.8158
3732.5479,99.7501
3733.5120,99.6914
3734.4763,99.7397
3735.4404,99.904
3736.4048,100.059
3737.3689,100.111
3738.3333,100.1
3739.2974,100.139
3740.2617,100.309
3741.2258,100.608
3742.1902,100.942
3743.1543,101.164
3744.1187,101.167
3745.0828,100.959
3746.0471,100.648
3747.0112,100.357
3747.9756,100.16
3748.9397,100.086
3749.9041,100.145
3750.8682,100.304
3751.8325,100.435
3752.7966,100.417
3753.7610,100.272
3754.7251,100.1
3755.6895,99.9753
3756.6536,99.9211
3757.6179,99.9308
3758.5820,99.9838
3759.5464,100.047
3760.5105,100.087
3761.4749,100.094
3762.4390,100.08
3763.4033,100.06
3764.3674,100.043
3765.3318,100.027
3766.2959,100.013
3767.2603,100.003
3768.2244,100.007
3769.1887,100.029
3770.1528,100.079
3771.1172,100.122
3772.0813,100.135
3773.0457,100.121
3774.0098,100.097
3774.9741,100.078
3775.9382,100.069
3776.9026,100.064
3777.8667,100.06
3778.8311,100.057
3779.7952,100.044
3780.7595,100.006
3781.7236,99.945
3782.6880,99.8801
3783.6521,99.8397
3784.6165,99.8457
3785.5806,99.9011
3786.5449,99.9873
3787.5090,100.075
3788.4734,100.141
3789.4375,100.18
3790.4019,100.197
3791.3660,100.196
3792.3303,100.173
3793.2944,100.115
3794.2588,100.018
3795.2229,99.899
3796.1873,99.7963
3797.1514,99.7422
3798.1157,99.7419
3799.0798,99.7723
3800.0442,99.8047
3801.0083,99.8265
3801.9727,99.8392
3802.9368,99.8524
3803.9011,99.8872
3804.8652,99.9637
3805.8296,100.076
3806.7937,100.185
3807.7581,100.235
3808.7222,100.201
3809.6865,100.122
3810.6506,100.069
3811.6150,100.091
3812.5791,100.171
3813.5435,100.242
3814.5076,100.23
3815.4719,100.116
3816.4360,99.9421
3817.4004,99.7762
3818.3645,99.6743
3819.3289,99.6662
3820.2930,99.7446
3821.2573,99.8506
3822.2214,99.9014
3823.1858,99.8641
3824.1499,99.7789
3825.1143,99.7113
3826.0784,99.7028
3827.0427,99.755
3828.0068,99.8392
3828.9712,99.9187
3829.9353,99.9694
3830.8997,99.9892
3831.8638,99.9933
3832.8281,99.9988
3833.7922,100.009
3834.7566,100.005
3835.7207,99.9594
3836.6851,99.8623
3837.6492,99.7444
3838.6135,99.6604
3839.5776,99.644
3840.5420,99.6928
3841.5061,99.7866
3842.4705,99.8968
3843.4346,99.9857
3844.3989,100.016
3845.3630,99.976
3846.3274,99.897
3847.2915,99.8465
3848.2559,99.8949
3849.2200,100.079
3850.1843,100.372
3851.1484,100.688
3852.1128,100.943
3853.0769,101.097
3854.0413,101.08
3855.0054,100.837
3855.9697,100.467
3856.9338,100.136
3857.8982,99.944
3858.8623,99.8979
3859.8267,99.9378
3860.7908,99.9825
3861.7551,99.9818
3862.7192,99.9491
3863.6836,99.937
3864.6477,99.978
3865.6121,100.06
3866.5762,100.148
3867.5405,100.202
3868.5046,100.199
3869.4690,100.149
3870.4331,100.088
3871.3975,100.055
3872.3616,100.057
3873.3259,100.078
3874.2900,100.106
3875.2544,100.138
3876.2185,100.173
3877.1829,100.205
3878.1470,100.214
3879.1113,100.192
3880.0754,100.152
3881.0398,100.126
3882.0039,100.142
3882.9683,100.209
3883.9324,100.308
3884.8967,100.399
3885.8608,100.443
3886.8252,100.422
3887.7893,100.352
3888.7537,100.262
3889.7178,100.175
3890.6821,100.11
3891.6462,100.075
3892.6106,100.064
3893.5747,100.063
3894.5391,100.071
3895.5032,100.1
3896.4675,100.148
3897.4316,100.193
3898.3960,100.21
3899.3601,100.192
3900.3245,100.156
3901.2886,100.119
3902.2529,100.097
3903.2170,100.1
3904.1814,100.122
3905.1455,100.147
3906.1099,100.162
3907.0740,100.17
3908.0383,100.181
3909.0024,100.196
3909.9668,100.211
3910.9309,100.217
3911.8953,100.214
3912.8594,100.205
3913.8237,100.194
3914.7878,100.186
3915.7522,100.18
3916.7163,100.181
3917.6807,100.186
3918.6448,100.181
3919.6091,100.154
3920.5732,100.108
3921.5376,100.055
3922.5017,100.013
3923.4661,99.9942
3924.4302,99.9985
3925.3945,100.01
3926.3586,100.011
3927.3230,99.9914
3928.2871,99.9585
3929.2515,99.9279
3930.2156,99.92
3931.1799,99.951
3932.1440,100.018
3933.1084,100.097
3934.0725,100.161
3935.0369,100.196
3936.0010,100.205
3936.9653,100.197
3937.9294,100.177
3938.8938,100.145
3939.8579,100.103
3940.8223,100.061
3941.7864,100.033
3942.7507,100.025
3943.7148,100.034
3944.6792,100.045
3945.6433,100.045
3946.6077,100.028
3947.5718,99.9987
3948.5361,99.9725
3949.5002,99.9633
3950.4646,99.9759
3951.4287,100.003
3952.3931,100.035
3953.3572,100.06
3954.3215,100.074
3955.2856,100.076
3956.2500,100.069
3957.2141,100.057
3958.1785,100.047
3959.1426,100.044
3960.1069,100.052
3961.0710,100.074
3962.0354,100.107
3962.9995,100.143
3963.9639,100.174
3964.9280,100.193
3965.8923,100.195
3966.8564,100.182
3967.8208,100.157
3968.7849,100.125
3969.7493,100.093
3970.7134,100.064
3971.6777,100.043
3972.6418,100.033
3973.6062,100.036
3974.5703,100.05
3975.5347,100.073
3976.4988,100.1
3977.4631,100.126
3978.4272,100.146
3979.3916,100.157
3980.3557,100.16
3981.3201,100.153
3982.2842,100.141
3983.2485,100.125
3984.2126,100.109
3985.1770,100.095
3986.1411,100.084
3987.1055,100.075
3988.0696,100.065
3989.0339,100.052
3989.9980,100.036
3990.9624,100.018
3991.9265,100.003
3992.8909,99.9995
3993.8550,100.011
3994.8193,100.035
3995.7834,100.065
3996.7478,100.09
3997.7119,100.102
3998.6763,100.103
3999.6404,100.099
4000.6047,99.9134

##### Extended Information
[Comments]
Sample name
Comment
User
Division
Company,HANKYONG

[Detailed Information]
Creation date,4/24/2024 11:38 AM

Data array type,Linear data array
Horizontal axis,Wavenumber [cm-1]
Vertical axis,%T
Start,649.893 cm-1
End,4000.6 cm-1
Data interval,0.964233 cm-1
Data points,3476    

[Measurement Information]
Model Name,FT/IR-4700typeA
Serial Number,D056761788

Accessory,ATR PRO ONE
Accessory S/N,C174761809
Incident angle,45 deg

Measurement Date,4/24/2024 11:37 AM

Light Source,Standard
Detector,TGS
Accumulation,32
Resolution,4 cm-1
Zero Filling,On
Apodization,Cosine
Gain,Auto (4)
Aperture,Auto (7.1 mm)
Scanning Speed,Auto (2 mm/sec)
Filter,Auto (30000 Hz)

