Time,Temperature,Weight,Deriv. Weight
0.0,39.61,98.915,-0.333333
0.003333333,39.61333333,98.915,-0.343042
0.006666667,39.61666667,98.915,-0.357687
0.01,39.61729167,98.914,-0.370409
0.011428571,39.61791667,98.914,-0.379666
0.012857143,39.61854167,98.914,-0.380312
0.014285714,39.61916667,98.914,-0.392187
0.015714286,39.61979167,98.914,-0.403745
0.017142857,39.62041667,98.913,-0.392916
0.018571429,39.62104167,98.913,-0.373226
0.02,39.62166667,98.913,-0.357672
0.022,39.62229167,98.913,-0.356637
0.024,39.62291667,98.912,-0.366858
0.026,39.62354167,98.912,-0.380782
0.028,39.62416667,98.912,-0.393397
0.03,39.62479167,98.912,-0.414493
0.031428571,39.62541667,98.911,-0.433917
0.032857143,39.62604167,98.911,-0.437168
0.034285714,39.62666667,98.911,-0.45142
0.035714286,39.6272549,98.911,-0.451011
0.037142857,39.62784314,98.91,-0.434259
0.038571429,39.62843137,98.91,-0.421084
0.04,39.62901961,98.91,-0.399488
0.042,39.62960784,98.91,-0.395381
0.044,39.63019608,98.909,-0.381032
0.046,39.63078431,98.909,-0.366357
0.048,39.63137255,98.909,-0.351648
0.05,39.63196078,98.909,-0.340055
0.051428571,39.63254902,98.909,-0.338797
0.052857143,39.63313725,98.908,-0.325143
0.054285714,39.63372549,98.908,-0.310818
0.055714286,39.63431373,98.908,-0.294069
0.057142857,39.63490196,98.908,-0.274674
0.058571429,39.6354902,98.908,-0.263699
0.06,39.63607843,98.908,-0.261909
0.062,39.63666667,98.907,-0.25013
0.064,39.63729167,98.907,-0.227477
0.066,39.63791667,98.907,-0.176752
0.068,39.63854167,98.907,-0.130574
0.07,39.63916667,98.907,-0.106721
0.071666667,39.63979167,98.907,-0.0990618
0.073333333,39.64041667,98.907,-0.10583
0.075,39.64104167,98.907,-0.109055
0.076666667,39.64166667,98.907,-0.108659
0.078333333,39.64229167,98.907,-0.107746
0.08,39.64291667,98.906,-0.102007
0.081428571,39.64354167,98.906,-0.0997369
0.082857143,39.64416667,98.906,-0.105364
0.084285714,39.64479167,98.906,-0.107608
0.085714286,39.64541667,98.906,-0.106405
0.087142857,39.64604167,98.906,-0.0987612
0.088571429,39.64666667,98.906,-0.088977
0.09,39.6474359,98.906,-0.068375
0.091666667,39.64820513,98.906,-0.0482869
0.093333333,39.64897436,98.906,-0.031891
0.095,39.64974359,98.906,-0.0273087
0.096666667,39.65051282,98.906,-0.0205843
0.098333333,39.65128205,98.906,-0.000882416
0.1,39.65205128,98.906,0.0262058
0.102,39.65282051,98.906,0.0503856
0.104,39.65358974,98.906,0.075623
0.106,39.65435897,98.906,0.0958753
0.108,39.65512821,98.906,0.107963
0.11,39.65589744,98.906,0.12241
0.111666667,39.65666667,98.906,0.12631
0.113333333,39.65766667,98.906,0.133249
0.115,39.65866667,98.907,0.148283
0.116666667,39.65966667,98.907,0.165081
0.118333333,39.66066667,98.907,0.191786
0.12,39.66166667,98.907,0.207017
0.121666667,39.66266667,98.907,0.208923
0.123333333,39.66366667,98.907,0.212324
0.125,39.66466667,98.908,0.224425
0.126666667,39.66566667,98.908,0.257405
0.128333333,39.66666667,98.908,0.288139
0.13,39.66777778,98.909,0.309463
0.131666667,39.66888889,98.909,0.321454
0.133333333,39.67,98.909,0.329389
0.135,39.67111111,98.91,0.341564
0.136666667,39.67222222,98.91,0.348186
0.138333333,39.67333333,98.91,0.354897
0.14,39.67444444,98.911,0.356843
0.141428571,39.67555556,98.911,0.359574
0.142857143,39.67666667,98.912,0.365953
0.144285714,39.67809524,98.912,0.364583
0.145714286,39.67952381,98.913,0.368876
0.147142857,39.68095238,98.913,0.381066
0.148571429,39.68238095,98.914,0.391309
0.15,39.68380952,98.914,0.401464
0.152,39.6852381,98.915,0.40444
0.154,39.68666667,98.916,0.404409
0.156,39.68833333,98.916,0.405598
0.158,39.69,98.917,0.405638
0.16,39.69166667,98.918,0.401161
0.161428571,39.69333333,98.918,0.400286
0.162857143,39.695,98.919,0.406877
0.164285714,39.69666667,98.92,0.416963
0.165714286,39.69866667,98.92,0.421514
0.167142857,39.70066667,98.921,0.418837
0.168571429,39.70266667,98.922,0.412218
0.17,39.70466667,98.923,0.407036
0.172,39.70666667,98.924,0.403808
0.174,39.70866667,98.924,0.400958
0.176,39.71066667,98.925,0.401721
0.178,39.71266667,98.926,0.398766
0.18,39.71466667,98.927,0.400399
0.181666667,39.71666667,98.928,0.400499
0.183333333,39.71916667,98.929,0.398243
0.185,39.72166667,98.93,0.39863
0.186666667,39.72416667,98.93,0.393266
0.188333333,39.72666667,98.931,0.390751
0.19,39.72916667,98.932,0.392691
0.191428571,39.73166667,98.933,0.389612
0.192857143,39.73416667,98.934,0.384355
0.194285714,39.73666667,98.935,0.378764
0.195714286,39.73916667,98.936,0.376395
0.197142857,39.74166667,98.937,0.379424
0.198571429,39.74416667,98.938,0.381465
0.2,39.74666667,98.939,0.381006
0.202,39.75,98.94,0.377566
0.204,39.75333333,98.942,0.373585
0.206,39.75666667,98.943,0.369036
0.208,39.76,98.944,0.362772
0.21,39.76333333,98.945,0.357646
0.211428571,39.76666667,98.946,0.352016
0.212857143,39.77,98.947,0.346929
0.214285714,39.77333333,98.948,0.339477
0.215714286,39.77666667,98.949,0.332209
0.217142857,39.78,98.95,0.32745
0.218571429,39.78333333,98.951,0.324727
0.22,39.78666667,98.953,0.324798
0.222,39.79,98.954,0.323916
0.224,39.79333333,98.955,0.321618
0.226,39.79666667,98.956,0.321974
0.228,39.8,98.957,0.323274
0.23,39.80333333,98.958,0.323766
0.231666667,39.80666667,98.96,0.323432
0.233333333,39.81166667,98.961,0.320182
0.235,39.81666667,98.962,0.319369
0.236666667,39.82,98.964,0.31887
0.238333333,39.82333333,98.965,0.314921
0.24,39.82666667,98.966,0.310285
0.241428571,39.83166667,98.967,0.305184
0.242857143,39.83666667,98.969,0.300559
0.244285714,39.84166667,98.97,0.300686
0.245714286,39.84666667,98.971,0.299324
0.247142857,39.85166667,98.973,0.296973
0.248571429,39.85666667,98.974,0.293921
0.25,39.86166667,98.976,0.288366
0.252,39.86666667,98.977,0.285731
0.254,39.87166667,98.978,0.284402
0.256,39.87666667,98.98,0.282324
0.258,39.88166667,98.981,0.27904
0.26,39.88666667,98.982,0.276684
0.261428571,39.89166667,98.984,0.275013
0.262857143,39.89666667,98.985,0.272828
0.264285714,39.90166667,98.987,0.270147
0.265714286,39.90666667,98.988,0.26692
0.267142857,39.91166667,98.989,0.263595
0.268571429,39.91666667,98.991,0.260347
0.27,39.92166667,98.992,0.256679
0.272,39.92666667,98.994,0.253677
0.274,39.93166667,98.995,0.251342
0.276,39.93666667,98.997,0.248617
0.278,39.94666667,98.998,0.24552
0.28,39.95166667,99.0,0.242624
0.281666667,39.95666667,99.001,0.240412
0.283333333,39.96166667,99.002,0.239462
0.285,39.96666667,99.004,0.236856
0.286666667,39.97666667,99.005,0.232237
0.288333333,39.98166667,99.007,0.228781
0.29,39.98666667,99.008,0.226624
0.291666667,39.99666667,99.01,0.227211
0.293333333,40.00166667,99.011,0.228051
0.295,40.00666667,99.013,0.226013
0.296666667,40.01666667,99.014,0.222353
0.298333333,40.02166667,99.016,0.218643
0.3,40.02666667,99.017,0.214996
0.301428571,40.03666667,99.019,0.213649
0.302857143,40.04166667,99.02,0.211429
0.304285714,40.04666667,99.022,0.208961
0.305714286,40.05666667,99.023,0.207007
0.307142857,40.06666667,99.025,0.204938
0.308571429,40.07166667,99.026,0.204694
0.31,40.07666667,99.028,0.202516
0.311666667,40.08666667,99.029,0.20018
0.313333333,40.09666667,99.031,0.198581
0.315,40.10166667,99.032,0.196923
0.316666667,40.10666667,99.034,0.196633
0.318333333,40.11666667,99.035,0.194899
0.32,40.12666667,99.037,0.193393
0.322,40.13666667,99.038,0.190534
0.324,40.14166667,99.04,0.18739
0.326,40.14666667,99.041,0.185766
0.328,40.15666667,99.043,0.183791
0.33,40.16666667,99.045,0.181713
0.331666667,40.17666667,99.046,0.177878
0.333333333,40.18666667,99.048,0.174324
0.335,40.19666667,99.049,0.172483
0.336666667,40.20166667,99.051,0.171434
0.338333333,40.20666667,99.052,0.170345
0.34,40.21666667,99.054,0.168837
0.341666667,40.22666667,99.055,0.167013
0.343333333,40.23666667,99.057,0.166553
0.345,40.24666667,99.058,0.165582
0.346666667,40.25666667,99.06,0.164254
0.348333333,40.26666667,99.061,0.162096
0.35,40.27666667,99.063,0.159666
0.351428571,40.28666667,99.064,0.158883
0.352857143,40.29666667,99.066,0.157658
0.354285714,40.30666667,99.067,0.155886
0.355714286,40.31666667,99.069,0.153461
0.357142857,40.32666667,99.07,0.151856
0.358571429,40.33666667,99.072,0.151481
0.36,40.34666667,99.073,0.151573
0.361666667,40.35666667,99.075,0.150156
0.363333333,40.36666667,99.076,0.147889
0.365,40.37666667,99.078,0.144924
0.366666667,40.38666667,99.079,0.142001
0.368333333,40.39666667,99.081,0.140391
0.37,40.40666667,99.082,0.139897
0.372,40.41666667,99.084,0.140039
0.374,40.42666667,99.085,0.13954
0.376,40.43666667,99.087,0.138129
0.378,40.44666667,99.088,0.13563
0.38,40.45666667,99.09,0.134704
0.381666667,40.46666667,99.091,0.134245
0.383333333,40.48666667,99.093,0.133352
0.385,40.49666667,99.094,0.132283
0.386666667,40.50666667,99.096,0.130384
0.388333333,40.51666667,99.097,0.129094
0.39,40.52666667,99.099,0.127948
0.391666667,40.53666667,99.1,0.12564
0.393333333,40.55666667,99.102,0.12384
0.395,40.56666667,99.103,0.122739
0.396666667,40.57666667,99.105,0.121708
0.398333333,40.58666667,99.106,0.120357
0.4,40.59666667,99.108,0.117823
0.401428571,40.61666667,99.109,0.115828
0.402857143,40.62666667,99.11,0.115472
0.404285714,40.63666667,99.112,0.115918
0.405714286,40.64666667,99.113,0.115811
0.407142857,40.65666667,99.115,0.114538
0.408571429,40.67666667,99.116,0.113396
0.41,40.68666667,99.118,0.112514
0.411666667,40.69666667,99.119,0.111581
0.413333333,40.71666667,99.121,0.109809
0.415,40.72666667,99.122,0.107948
0.416666667,40.73666667,99.123,0.106346
0.418333333,40.75666667,99.125,0.105677
0.42,40.76666667,99.126,0.105304
0.422,40.77666667,99.128,0.105055
0.424,40.79666667,99.129,0.10445
0.426,40.80666667,99.13,0.103655
0.428,40.81666667,99.132,0.102576
0.43,40.83666667,99.133,0.100745
0.431666667,40.84666667,99.135,0.0992229
0.433333333,40.85666667,99.136,0.0971678
0.435,40.87666667,99.137,0.0959488
0.436666667,40.88666667,99.139,0.0947372
0.438333333,40.90666667,99.14,0.0930576
0.44,40.91666667,99.141,0.0914611
0.441666667,40.93666667,99.143,0.0903629
0.443333333,40.94666667,99.144,0.090062
0.445,40.95666667,99.145,0.0899813
0.446666667,40.97666667,99.147,0.0892181
0.448333333,40.98666667,99.148,0.0874828
0.45,41.00666667,99.149,0.0857762
0.451428571,41.01666667,99.15,0.0845527
0.452857143,41.03666667,99.152,0.0839067
0.454285714,41.04666667,99.153,0.0836679
0.455714286,41.06666667,99.154,0.0833725
0.457142857,41.07666667,99.155,0.0830346
0.458571429,41.09666667,99.157,0.0829515
0.46,41.11666667,99.158,0.0829257
0.461666667,41.12666667,99.159,0.0821741
0.463333333,41.14666667,99.161,0.0808443
0.465,41.15666667,99.162,0.0789429
0.466666667,41.17666667,99.163,0.0771502
0.468333333,41.18666667,99.164,0.0759496
0.47,41.20666667,99.166,0.0749089
0.472,41.22666667,99.167,0.0736931
0.474,41.23666667,99.168,0.0726348
0.476,41.25666667,99.169,0.0713943
0.478,41.26666667,99.17,0.0701732
0.48,41.28666667,99.171,0.0695791
0.481666667,41.30666667,99.173,0.0687633
0.483333333,41.31666667,99.174,0.0682259
0.485,41.33666667,99.175,0.0680156
0.486666667,41.35666667,99.176,0.0676588
0.488333333,41.36666667,99.177,0.0674899
0.49,41.38666667,99.178,0.0672864
0.491666667,41.40666667,99.179,0.0666798
0.493333333,41.42666667,99.181,0.0663074
0.495,41.43666667,99.182,0.0660201
0.496666667,41.45666667,99.183,0.0653855
0.498333333,41.47666667,99.184,0.0651118
0.5,41.49666667,99.185,0.0647938
0.501428571,41.50666667,99.186,0.0643463
0.502857143,41.52666667,99.187,0.0641215
0.504285714,41.54666667,99.188,0.0637748
0.505714286,41.56666667,99.19,0.0632644
0.507142857,41.57666667,99.191,0.0625449
0.508571429,41.59666667,99.192,0.0612416
0.51,41.61666667,99.193,0.0602074
0.511666667,41.63666667,99.194,0.0595969
0.513333333,41.65666667,99.195,0.059287
0.515,41.66666667,99.196,0.05918
0.516666667,41.68666667,99.197,0.0582091
0.518333333,41.70666667,99.198,0.0571253
0.52,41.72666667,99.199,0.0559232
0.522,41.74666667,99.2,0.0548246
0.524,41.76666667,99.201,0.0538984
0.526,41.78666667,99.202,0.0526585
0.528,41.79666667,99.203,0.0513441
0.53,41.81666667,99.204,0.0501538
0.531428571,41.83666667,99.205,0.0491381
0.532857143,41.85666667,99.206,0.0488505
0.534285714,41.87666667,99.207,0.0488078
0.535714286,41.89666667,99.208,0.0486056
0.537142857,41.91666667,99.209,0.0478905
0.538571429,41.93666667,99.21,0.0469877
0.54,41.95666667,99.211,0.0466032
0.542,41.97666667,99.212,0.0464993
0.544,41.99666667,99.213,0.046321
0.546,42.01666667,99.214,0.0453686
0.548,42.03666667,99.215,0.0442661
0.55,42.05666667,99.215,0.0433235
0.551428571,42.07666667,99.216,0.042697
0.552857143,42.09666667,99.217,0.0424583
0.554285714,42.11666667,99.218,0.0426762
0.555714286,42.13666667,99.219,0.0430067
0.557142857,42.15666667,99.22,0.0430309
0.558571429,42.17666667,99.221,0.0426458
0.56,42.19666667,99.221,0.0416298
0.562,42.21666667,99.222,0.0409526
0.564,42.23666667,99.223,0.0404296
0.566,42.25666667,99.224,0.0399156
0.568,42.27666667,99.225,0.0395157
0.57,42.29666667,99.226,0.0387882
0.571666667,42.31666667,99.226,0.0380668
0.573333333,42.33666667,99.227,0.0374249
0.575,42.36666667,99.228,0.0368986
0.576666667,42.38666667,99.229,0.0362302
0.578333333,42.40666667,99.229,0.035601
0.58,42.42666667,99.23,0.0350817
0.581428571,42.44666667,99.231,0.0347466
0.582857143,42.46666667,99.232,0.0343765
0.584285714,42.48666667,99.232,0.0339397
0.585714286,42.51666667,99.233,0.0336505
0.587142857,42.53666667,99.234,0.0334342
0.588571429,42.55666667,99.235,0.0334676
0.59,42.57666667,99.235,0.0329433
0.592,42.59666667,99.236,0.0317937
0.594,42.61666667,99.237,0.0308931
0.596,42.64666667,99.237,0.0306218
0.598,42.66666667,99.238,0.0304885
0.6,42.68666667,99.239,0.0302889
0.601428571,42.70666667,99.239,0.0294418
0.602857143,42.72666667,99.24,0.0284987
0.604285714,42.75666667,99.241,0.0282061
0.605714286,42.77666667,99.241,0.0275437
0.607142857,42.79666667,99.242,0.0267172
0.608571429,42.81666667,99.243,0.0257249
0.61,42.84666667,99.243,0.0249743
0.612,42.86666667,99.244,0.0244602
0.614,42.88666667,99.244,0.0239841
0.616,42.91666667,99.245,0.0238483
0.618,42.93666667,99.245,0.0235462
0.62,42.95666667,99.246,0.0231791
0.621666667,42.97666667,99.246,0.0224831
0.623333333,43.00666667,99.247,0.0218587
0.625,43.02666667,99.247,0.0218985
0.626666667,43.04666667,99.248,0.0219684
0.628333333,43.07666667,99.248,0.021711
0.63,43.09666667,99.249,0.0214565
0.631428571,43.11666667,99.249,0.0211055
0.632857143,43.14666667,99.25,0.0209841
0.634285714,43.16666667,99.25,0.0207639
0.635714286,43.18666667,99.251,0.0201262
0.637142857,43.21666667,99.251,0.019719
0.638571429,43.23666667,99.252,0.0195404
0.64,43.26666667,99.252,0.019363
0.642,43.28666667,99.253,0.0190258
0.644,43.30666667,99.253,0.0184034
0.646,43.33666667,99.254,0.0175622
0.648,43.35666667,99.254,0.0168203
0.65,43.37666667,99.254,0.0163357
0.651428571,43.40666667,99.255,0.015821
0.652857143,43.42666667,99.255,0.0153726
0.654285714,43.45666667,99.256,0.0152112
0.655714286,43.47666667,99.256,0.0151437
0.657142857,43.50666667,99.256,0.0151709
0.658571429,43.52666667,99.257,0.0147279
0.66,43.54666667,99.257,0.0142882
0.662,43.57666667,99.257,0.0142554
0.664,43.59666667,99.258,0.0144384
0.666,43.62666667,99.258,0.0144043
0.668,43.64666667,99.258,0.0139706
0.67,43.67666667,99.259,0.0131707
0.671666667,43.69666667,99.259,0.0126513
0.673333333,43.72666667,99.259,0.0126548
0.675,43.74666667,99.26,0.0127509
0.676666667,43.77666667,99.26,0.0126008
0.678333333,43.79666667,99.26,0.0116907
0.68,43.82666667,99.261,0.0105724
0.681428571,43.84666667,99.261,0.00985361
0.682857143,43.87666667,99.261,0.00959148
0.684285714,43.89666667,99.261,0.00932949
0.685714286,43.92666667,99.262,0.00903914
0.687142857,43.94666667,99.262,0.00908095
0.688571429,43.97666667,99.262,0.00918191
0.69,43.99666667,99.262,0.00883237
0.692,44.02666667,99.263,0.00830657
0.694,44.05666667,99.263,0.00757507
0.696,44.07666667,99.263,0.00720397
0.698,44.10666667,99.263,0.00713079
0.7,44.12666667,99.263,0.00696893
0.701428571,44.15666667,99.263,0.00686632
0.702857143,44.17666667,99.264,0.00658709
0.704285714,44.20666667,99.264,0.00616131
0.705714286,44.23666667,99.264,0.00567811
0.707142857,44.25666667,99.264,0.00522633
0.708571429,44.28666667,99.264,0.00498179
0.71,44.30666667,99.264,0.00470966
0.712,44.33666667,99.264,0.00461376
0.714,44.36666667,99.265,0.00448892
0.716,44.38666667,99.265,0.00413177
0.718,44.41666667,99.265,0.00406611
0.72,44.44666667,99.265,0.00356593
0.721666667,44.46666667,99.265,0.00324154
0.723333333,44.49666667,99.265,0.00288927
0.725,44.51666667,99.265,0.00233637
0.726666667,44.54666667,99.265,0.0019866
0.728333333,44.57666667,99.265,0.00129337
0.73,44.59666667,99.265,0.000947068
0.731428571,44.62666667,99.265,0.000831027
0.732857143,44.65666667,99.265,0.00105878
0.734285714,44.67666667,99.265,0.00108538
0.735714286,44.70666667,99.265,0.000998126
0.737142857,44.73666667,99.265,0.000740154
0.738571429,44.75666667,99.265,0.000397974
0.74,44.78666667,99.265,-2.87668e-05
0.742,44.81666667,99.265,-0.000425287
0.744,44.83666667,99.265,-0.000622705
0.746,44.86666667,99.265,-0.000989271
0.748,44.89666667,99.265,-0.000959609
0.75,44.92666667,99.265,-0.00115529
0.751428571,44.94666667,99.265,-0.00123806
0.752857143,44.97666667,99.265,-0.00123643
0.754285714,45.00666667,99.265,-0.00171156
0.755714286,45.02666667,99.265,-0.00215725
0.757142857,45.05666667,99.265,-0.00240591
0.758571429,45.08666667,99.265,-0.0025141
0.76,45.11666667,99.265,-0.00228744
0.762,45.13666667,99.265,-0.00236802
0.764,45.16666667,99.265,-0.00236451
0.766,45.19666667,99.265,-0.00233335
0.768,45.22666667,99.265,-0.002108
0.77,45.24666667,99.265,-0.00213322
0.771666667,45.27666667,99.265,-0.00293288
0.773333333,45.30666667,99.265,-0.00378515
0.775,45.33666667,99.264,-0.00438642
0.776666667,45.35666667,99.264,-0.00415989
0.778333333,45.38666667,99.264,-0.00371463
0.78,45.41666667,99.264,-0.00368297
0.781428571,45.44666667,99.264,-0.00444742
0.782857143,45.47666667,99.264,-0.00482545
0.784285714,45.49666667,99.264,-0.00501101
0.785714286,45.52666667,99.264,-0.00473127
0.787142857,45.55666667,99.263,-0.00458927
0.788571429,45.58666667,99.263,-0.00529286
0.79,45.60666667,99.263,-0.00607725
0.792,45.63666667,99.263,-0.00688691
0.794,45.66666667,99.263,-0.00742284
0.796,45.69666667,99.263,-0.00793035
0.798,45.72666667,99.262,-0.00800214
0.8,45.75666667,99.262,-0.00796568
0.801428571,45.77666667,99.262,-0.00790265
0.802857143,45.80666667,99.262,-0.00829963
0.804285714,45.83666667,99.261,-0.00891124
0.805714286,45.86666667,99.261,-0.00903594
0.807142857,45.89666667,99.261,-0.00889171
0.808571429,45.91666667,99.261,-0.00869422
0.81,45.94666667,99.26,-0.00898039
0.812,45.97666667,99.26,-0.00966882
0.814,46.00666667,99.26,-0.0103294
0.816,46.03666667,99.26,-0.0112037
0.818,46.06666667,99.259,-0.0118895
0.82,46.09666667,99.259,-0.0121194
0.821666667,46.11666667,99.258,-0.0119207
0.823333333,46.14666667,99.258,-0.0112956
0.825,46.17666667,99.258,-0.0108049
0.826666667,46.20666667,99.258,-0.0105551
0.828333333,46.23666667,99.257,-0.0105986
0.83,46.26666667,99.257,-0.010934
0.831428571,46.29666667,99.257,-0.0110827
0.832857143,46.31666667,99.256,-0.0108053
0.834285714,46.34666667,99.256,-0.0103979
0.835714286,46.37666667,99.256,-0.0100448
0.837142857,46.40666667,99.255,-0.0102485
0.838571429,46.43666667,99.255,-0.010743
0.84,46.46666667,99.255,-0.0109716
0.842,46.49666667,99.254,-0.0112263
0.844,46.52666667,99.254,-0.011507
0.846,46.55666667,99.254,-0.0121821
0.848,46.57666667,99.253,-0.012883
0.85,46.60666667,99.253,-0.0133462
0.851428571,46.63666667,99.253,-0.0134932
0.852857143,46.66666667,99.252,-0.0131408
0.854285714,46.69666667,99.252,-0.0129203
0.855714286,46.72666667,99.252,-0.0128047
0.857142857,46.75666667,99.251,-0.0130569
0.858571429,46.78666667,99.251,-0.0133875
0.86,46.81666667,99.25,-0.0132991
0.862,46.84666667,99.25,-0.013159
0.864,46.86666667,99.25,-0.0131237
0.866,46.89666667,99.249,-0.0131937
0.868,46.92666667,99.249,-0.0134454
0.87,46.95666667,99.248,-0.0138533
0.871666667,46.98666667,99.248,-0.0142606
0.873333333,47.01666667,99.248,-0.0148763
0.875,47.04666667,99.247,-0.0150748
0.876666667,47.07666667,99.247,-0.0151421
0.878333333,47.10666667,99.246,-0.0151838
0.88,47.13666667,99.246,-0.0151734
0.881428571,47.16666667,99.245,-0.0153449
