Time,Temperature,Weight,Deriv. Weight
39.62,39.614999999999995,99.368,-0.2631135
39.620555555555555,39.61563492063492,99.368,-0.2697845
39.62111111111111,39.61626984126984,99.3675,-0.2763905
39.62166666666667,39.61690476190476,99.3675,-0.28187850000000003
39.62222222222223,39.617539682539686,99.3675,-0.281714
39.622777777777785,39.61817460317461,99.3675,-0.2795095
39.62333333333334,39.61880952380953,99.3675,-0.27682399999999996
39.6238888888889,39.619444444444454,99.36699999999999,-0.277798
39.62444444444446,39.62007936507938,99.36699999999999,-0.283236
39.625000000000014,39.6207142857143,99.3665,-0.282319
39.62555555555557,39.62134920634922,99.3665,-0.2815705
39.62611111111113,39.621984126984145,99.3665,-0.2762185
39.62666666666669,39.62261904761907,99.3665,-0.2695185
39.627222222222244,39.62325396825399,99.366,-0.273624
39.6277777777778,39.62382586367883,99.366,-0.280733
39.62833333333336,39.62439775910367,99.366,-0.2869505
39.628888888888916,39.624969654528506,99.366,-0.2847685
39.629444444444474,39.62554154995334,99.366,-0.279927
39.629879227053166,39.626053058904745,99.366,-0.272766
39.63031400966186,39.62656456785615,99.36500000000001,-0.268343
39.63074879227055,39.627076076807555,99.36500000000001,-0.26436550000000003
39.631183574879245,39.62758758575896,99.36500000000001,-0.26152
39.63161835748794,39.628099094710365,99.36500000000001,-0.2625835
39.63205314009663,39.62861060366177,99.36500000000001,-0.263836
39.63248792270532,39.629122112613175,99.36500000000001,-0.261349
39.632922705314016,39.62963362156458,99.36449999999999,-0.258786
39.63335748792271,39.630145130515984,99.36449999999999,-0.2508435
39.6337922705314,39.63065663946739,99.36449999999999,-0.24689499999999998
39.634227053140094,39.631168148418794,99.36449999999999,-0.24569249999999998
39.63466183574879,39.6316796573702,99.364,-0.24286649999999999
39.63509661835748,39.632191166321604,99.364,-0.246374
39.63553140096617,39.63274189095929,99.364,-0.2437005
39.635966183574865,39.63329261559697,99.36349999999999,-0.2395145
39.63640096618356,39.63384334023465,99.36349999999999,-0.229582
39.63683574879225,39.634394064872325,99.36349999999999,-0.21732200000000002
39.637270531400944,39.63494478951001,99.36349999999999,-0.208649
39.63770531400964,39.63549551414769,99.36349999999999,-0.203398
39.63814009661833,39.63604623878537,99.36349999999999,-0.2020555
39.63857487922702,39.636596963423045,99.36349999999999,-0.19571100000000002
39.639009661835715,39.63714768806073,99.36349999999999,-0.1879365
39.63944444444441,39.63769841269841,99.36250000000001,-0.18318099999999998
39.63994444444441,39.638281746031744,99.36250000000001,-0.173514
39.64044444444441,39.638865079365075,99.36250000000001,-0.169015
39.640944444444415,39.639448412698414,99.36250000000001,-0.159771
39.64144444444442,39.64003174603175,99.36250000000001,-0.1528565
39.64194444444442,39.640615079365084,99.36250000000001,-0.1491325
39.64244444444442,39.64131962481963,99.36250000000001,-0.14134950000000002
39.642944444444424,39.642024170274176,99.36250000000001,-0.1362155
39.64344444444443,39.64272871572872,99.36250000000001,-0.130795
39.64394444444443,39.64343326118327,99.36250000000001,-0.1302005
39.64444444444443,39.644137806637815,99.36250000000001,-0.13201000000000002
39.644944444444434,39.64484235209236,99.362,-0.12820600000000001
39.645444444444436,39.64554689754691,99.3615,-0.1232585
39.64594444444444,39.646251443001454,99.3615,-0.110898
39.64644444444444,39.646955988456,99.3615,-0.09969890000000001
39.64694444444444,39.647660533910546,99.3615,-0.092764
39.647444444444446,39.64836507936509,99.3615,-0.0848896
39.64794444444445,39.64911507936509,99.3615,-0.08338755
39.64844444444445,39.64986507936509,99.3615,-0.0779507
39.64894444444445,39.650615079365096,99.3615,-0.07146125
39.649444444444455,39.65136507936509,99.3615,-0.0661272
39.65015873015874,39.652222222222235,99.3615,-0.058884500000000006
39.65087301587303,39.65307936507938,99.3615,-0.0494265
39.65158730158732,39.65393650793652,99.36099999999999,-0.039840499999999994
39.65230158730161,39.654793650793664,99.36099999999999,-0.02762505
39.653015873015896,39.65565079365081,99.36099999999999,-0.01808529999999999
39.653730158730184,39.65650793650795,99.36099999999999,-0.013521199999999997
39.65444444444447,39.65749007936509,99.36099999999999,-0.006391000000000001
39.65515873015876,39.65847222222224,99.36099999999999,-0.0017237999999999976
39.65587301587305,39.659454365079384,99.36099999999999,0.005491400000000007
39.65658730158734,39.660436507936524,99.36099999999999,0.012726799999999996
39.657301587301625,39.661418650793664,99.36099999999999,0.017449549999999994
39.65801587301591,39.66240079365081,99.36099999999999,0.02374685
39.6587301587302,39.66338293650796,99.36099999999999,0.027006050000000004
39.65944444444449,39.6643650793651,99.3615,0.0314772
39.66044444444449,39.66557936507938,99.3615,0.03444789999999999
39.661444444444484,39.666793650793664,99.3615,0.03790115000000001
39.66244444444448,39.66800793650795,99.3615,0.0427854
39.66344444444448,39.66922222222223,99.361,0.048499600000000004
39.66444444444448,39.670436507936515,99.361,0.05408605000000001
39.665444444444475,39.6716507936508,99.361,0.057643
39.66644444444447,39.67286507936508,99.361,0.060747999999999996
39.66744444444447,39.674198412698416,99.3615,0.0624526
39.66844444444447,39.675531746031744,99.3615,0.0666905
39.669444444444466,39.67686507936507,99.3615,0.06813855
39.670694444444464,39.678323412698404,99.3615,0.0681725
39.67194444444446,39.679781746031736,99.3615,0.06764044999999999
39.67319444444446,39.68124007936507,99.362,0.06789724999999999
39.67444444444446,39.6826984126984,99.362,0.0716717
39.67569444444446,39.68415674603173,99.362,0.07540385
39.67694444444446,39.685615079365064,99.362,0.07927575
39.67819444444446,39.687073412698396,99.362,0.07848820000000001
39.67944444444446,39.68853174603173,99.36250000000001,0.0781805
39.68111111111112,39.69019841269839,99.36250000000001,0.07856275
39.68277777777779,39.69228174603173,99.36250000000001,0.07805345
39.68444444444445,39.69436507936506,99.36250000000001,0.0803185
39.68611111111112,39.696448412698395,99.363,0.08073805
39.68777777777778,39.698531746031726,99.363,0.08062825
39.68944444444445,39.700365079365056,99.363,0.08314993999999999
39.69144444444445,39.702365079365066,99.3635,0.084173075
39.69344444444445,39.70436507936506,99.3635,0.08530835
39.695444444444455,39.70636507936507,99.3635,0.0871598
39.69744444444446,39.708365079365066,99.3635,0.08607158
39.69944444444446,39.71061507936507,99.364,0.08615567
39.70144444444446,39.71286507936507,99.364,0.084845695
39.703444444444465,39.71511507936507,99.36449999999999,0.08337823999999999
39.70544444444447,39.71736507936507,99.36449999999999,0.082547695
39.70744444444447,39.72003174603174,99.36449999999999,0.081250245
39.70944444444447,39.722698412698406,99.36500000000001,0.08180095999999999
39.711444444444474,39.72536507936507,99.36500000000001,0.08282015000000001
39.71344444444448,39.72761507936507,99.36500000000001,0.08401763
39.71544444444448,39.72986507936507,99.3655,0.08452783250000001
39.71744444444448,39.73211507936507,99.3655,0.0834445365
39.719444444444484,39.73436507936508,99.3655,0.08331899799999999
39.72194444444448,39.73728174603174,99.366,0.0841835065
39.72444444444448,39.740198412698405,99.366,0.0851450505
39.72694444444448,39.74311507936507,99.3665,0.085175687
39.729444444444475,39.74603174603173,99.3665,0.08329885249999999
39.732777777777805,39.74936507936506,99.367,0.0816075
39.736111111111136,39.75269841269839,99.367,0.0806435865
39.739444444444466,39.756031746031724,99.367,0.08052626
39.74194444444447,39.75894841269839,99.3675,0.080680845
39.74444444444447,39.76186507936505,99.3675,0.08035015
39.746944444444466,39.764781746031716,99.368,0.079536175
39.749444444444464,39.76769841269838,99.368,0.079021605
39.752777777777794,39.77103174603171,99.36850000000001,0.07872193
39.756111111111125,39.77436507936504,99.36850000000001,0.078556325
39.759444444444455,39.77769841269837,99.369,0.07845331
39.762777777777785,39.7810317460317,99.369,0.07814231499999999
39.766111111111115,39.78519841269837,99.3695,0.07702108
39.769444444444446,39.78936507936504,99.3695,0.07754066
39.77277777777778,39.79269841269837,99.37,0.076819265
39.77611111111111,39.7960317460317,99.37,0.07603125000000001
39.779444444444444,39.79936507936503,99.37049999999999,0.074848545
39.782777777777774,39.803531746031695,99.37049999999999,0.07264784
39.786111111111104,39.807698412698365,99.37100000000001,0.07141499
39.789444444444435,39.811865079365035,99.37100000000001,0.070697875
39.79444444444444,39.81686507936503,99.3715,0.07084982499999999
39.79944444444444,39.82186507936504,99.3715,0.07159209
39.80277777777777,39.8260317460317,99.372,0.07202695
39.8061111111111,39.82936507936503,99.372,0.07169917499999999
39.80944444444443,39.83269841269836,99.3725,0.071309295
39.81444444444443,39.836865079365026,99.373,0.070345605
39.819444444444436,39.841865079365036,99.373,0.06977507
39.82444444444444,39.84686507936503,99.3735,0.06939742
39.82944444444444,39.85186507936504,99.3735,0.068572545
39.83277777777777,39.856031746031704,99.374,0.06780432
39.8361111111111,39.86019841269837,99.374,0.0662432
39.83944444444443,39.86436507936504,99.37450000000001,0.064768305
39.844444444444434,39.86936507936504,99.37450000000001,0.06388645
39.84944444444444,39.87436507936504,99.375,0.06317053
39.85444444444444,39.88186507936504,99.3755,0.062815495
39.85944444444444,39.88686507936504,99.3755,0.06262226000000001
39.864444444444445,39.89186507936505,99.376,0.06242985
39.86944444444445,39.89686507936504,99.376,0.06152938
39.87444444444445,39.90186507936505,99.3765,0.060864365000000004
39.87944444444445,39.90686507936505,99.37700000000001,0.059641599999999996
39.884444444444455,39.91186507936506,99.37700000000001,0.059066335
39.88944444444446,39.91936507936505,99.378,0.05856478
39.89444444444446,39.92436507936506,99.378,0.05786028
39.89944444444446,39.929365079365056,99.3785,0.057514720000000005
39.90944444444446,39.936865079365056,99.37899999999999,0.056749955000000005
39.914444444444456,39.94186507936506,99.37899999999999,0.056127985
39.91944444444446,39.94936507936505,99.37950000000001,0.05519532
39.92444444444446,39.954365079365054,99.37950000000001,0.054515495000000004
39.929444444444464,39.95936507936506,99.38,0.054141465
39.93944444444446,39.96936507936506,99.38,0.05397927499999999
39.94444444444446,39.97436507936506,99.3805,0.053825439999999995
39.94944444444446,39.97936507936506,99.381,0.05344435
39.95444444444446,39.98686507936506,99.381,0.05280611
39.959444444444465,39.99186507936506,99.38149999999999,0.05229519
39.96944444444446,39.99936507936506,99.382,0.051917754999999996
39.97444444444446,40.006865079365056,99.382,0.051433265
39.97944444444446,40.011865079365066,99.3825,0.050840085
39.98944444444446,40.01936507936506,99.3825,0.049878945
39.99444444444446,40.026865079365066,99.383,0.049357545
39.999444444444464,40.03436507936507,99.3835,0.04906199
40.00944444444446,40.04186507936507,99.3835,0.048930865000000004
40.014444444444464,40.04686507936506,99.384,0.04845191
40.01944444444447,40.05436507936507,99.3845,0.04771001
40.02944444444447,40.064365079365075,99.3845,0.04710332
40.034444444444475,40.06936507936507,99.38550000000001,0.046392085
40.03944444444448,40.07436507936507,99.38550000000001,0.045901615
40.049444444444475,40.08436507936507,99.386,0.045265275
40.05944444444447,40.09436507936507,99.3865,0.044638504999999995
40.064444444444476,40.10186507936507,99.3865,0.04417753
40.06944444444448,40.10686507936508,99.387,0.04373785
40.079444444444476,40.11436507936507,99.387,0.043400135
40.089444444444474,40.12436507936508,99.3875,0.043021125
40.09944444444448,40.134365079365075,99.388,0.04265229
40.10444444444448,40.141865079365076,99.388,0.042416115000000004
40.109444444444485,40.14936507936508,99.3885,0.042338
40.11944444444448,40.156865079365076,99.38900000000001,0.042070605
40.12944444444448,40.164365079365076,99.38900000000001,0.041681815
40.139444444444486,40.17436507936508,99.3895,0.041307029999999995
40.14444444444449,40.18186507936508,99.39,0.0408903
40.14944444444449,40.18936507936508,99.39,0.040655085
40.15944444444449,40.19936507936508,99.3905,0.040321905000000005
40.16944444444449,40.209365079365085,99.3905,0.039863575
40.17944444444449,40.21936507936508,99.39099999999999,0.039412485000000004
40.18944444444449,40.22936507936508,99.39150000000001,0.03888556
40.19944444444449,40.239365079365086,99.39150000000001,0.038420015
40.20944444444449,40.249365079365084,99.392,0.038049825
40.214444444444496,40.256865079365085,99.393,0.037850295
40.2194444444445,40.264365079365085,99.393,0.03757978
40.229444444444496,40.27436507936508,99.3935,0.03713657
40.239444444444494,40.28436507936509,99.394,0.036409395
40.2494444444445,40.294365079365086,99.394,0.03562264
40.2594444444445,40.304365079365084,99.3945,0.03524145
40.269444444444495,40.31436507936509,99.39500000000001,0.035108150000000005
40.2794444444445,40.32436507936509,99.39500000000001,0.034780580000000005
40.2894444444445,40.334365079365085,99.3955,0.03429721
40.2994444444445,40.34436507936509,99.3955,0.033674739999999995
40.309444444444495,40.35436507936508,99.396,0.03325059
40.3194444444445,40.364365079365086,99.3965,0.03310719
40.3294444444445,40.374365079365084,99.3965,0.03263222
40.339444444444496,40.38436507936508,99.397,0.03209067
40.3494444444445,40.39436507936509,99.397,0.03156067
40.3594444444445,40.404365079365085,99.39750000000001,0.031103525
40.3694444444445,40.41436507936508,99.398,0.030840665
40.379444444444495,40.42436507936509,99.398,0.030472904999999998
40.3894444444445,40.43436507936509,99.39850000000001,0.030182635
40.3994444444445,40.444365079365085,99.39850000000001,0.03010739
40.419444444444494,40.46436507936508,99.399,0.029952955
40.4294444444445,40.474365079365086,99.4,0.02972872
40.4394444444445,40.48436507936509,99.4,0.029409599999999998
40.449444444444495,40.49436507936508,99.4005,0.02886201
40.4594444444445,40.50436507936509,99.401,0.028532395
40.4694444444445,40.514365079365085,99.401,0.02813818
40.479444444444496,40.52436507936508,99.4015,0.027681485000000002
40.489444444444494,40.53936507936508,99.4015,0.027491289999999998
40.5094444444445,40.554365079365084,99.402,0.027108815
40.519444444444495,40.56436507936509,99.402,0.026835070000000003
40.5294444444445,40.57436507936509,99.4025,0.026631855
40.5394444444445,40.584365079365085,99.40299999999999,0.02640074
40.5494444444445,40.599365079365086,99.40299999999999,0.026299735
40.559444444444495,40.609365079365084,99.40350000000001,0.026288595
40.5794444444445,40.624365079365084,99.40350000000001,0.026022180000000002
40.589444444444496,40.63436507936508,99.404,0.025820100000000002
40.5994444444445,40.64936507936508,99.4045,0.025405785
40.6094444444445,40.65936507936509,99.4045,0.024946255
40.629444444444495,40.67436507936509,99.405,0.024980475000000002
40.6394444444445,40.68936507936509,99.405,0.024804075
40.6494444444445,40.69936507936509,99.40549999999999,0.024805690000000002
40.659444444444496,40.709365079365085,99.406,0.024483045
40.6794444444445,40.72936507936509,99.406,0.02428569
40.6894444444445,40.739365079365086,99.4065,0.024380115
40.699444444444495,40.749365079365084,99.4065,0.024150164999999998
40.7194444444445,40.76936507936509,99.4075,0.023806314999999998
40.729444444444496,40.779365079365085,99.408,0.02318541
40.739444444444494,40.78936507936508,99.408,0.022799885000000002
40.7594444444445,40.80936507936509,99.4085,0.022479145000000002
40.769444444444495,40.819365079365085,99.4085,0.022298665
40.7794444444445,40.82936507936509,99.40899999999999,0.02201263
40.7994444444445,40.849365079365086,99.40899999999999,0.02175678
40.809444444444495,40.859365079365084,99.40950000000001,0.02157941
40.8194444444445,40.87436507936509,99.40950000000001,0.021192275000000003
40.839444444444496,40.889365079365085,99.41,0.020942924999999998
40.8494444444445,40.90436507936509,99.4105,0.020541215
40.8694444444445,40.919365079365086,99.4105,0.02020063
40.879444444444495,40.929365079365084,99.411,0.020044100000000002
40.8994444444445,40.94936507936509,99.411,0.019811405
40.909444444444496,40.959365079365085,99.4115,0.019630235
40.919444444444494,40.974365079365086,99.4115,0.01940101
40.9394444444445,40.989365079365086,99.412,0.019255995
40.949444444444495,41.00436507936509,99.412,0.01936953
40.9694444444445,41.01936507936509,99.4125,0.019224455
40.979444444444496,41.03436507936509,99.41300000000001,0.01887686
40.9994444444445,41.04936507936509,99.41300000000001,0.01855978
41.0094444444445,41.06436507936509,99.4135,0.0182502
41.0294444444445,41.07936507936509,99.4135,0.018117225
41.0394444444445,41.09436507936509,99.414,0.017833265
41.059444444444495,41.114365079365086,99.414,0.01735769
41.0694444444445,41.12436507936509,99.4145,0.01698461
41.089444444444496,41.14436507936509,99.4145,0.01671643
41.1094444444445,41.15936507936509,99.41499999999999,0.016476245
41.1194444444445,41.17436507936509,99.41499999999999,0.016530215
41.1394444444445,41.18936507936509,99.41550000000001,0.016393095
41.1494444444445,41.20436507936509,99.41550000000001,0.016231864999999998
41.169444444444494,41.224365079365086,99.416,0.015927790499999997
41.1794444444445,41.23436507936509,99.416,0.01548615
41.199444444444495,41.25436507936509,99.4165,0.015446766
41.2194444444445,41.27436507936508,99.4165,0.015245124
41.229444444444496,41.28436507936509,99.417,0.0151168385
41.2494444444445,41.304365079365084,99.417,0.0148274355
41.269444444444495,41.32436507936508,99.4175,0.0146332245
41.2794444444445,41.334365079365085,99.4175,0.014485134
41.2994444444445,41.35436507936508,99.4175,0.014249554000000001
41.3194444444445,41.37436507936509,99.418,0.013904320500000001
41.3294444444445,41.38436507936508,99.418,0.01358592
41.3494444444445,41.40436507936509,99.4185,0.013380686499999999
41.3694444444445,41.42436507936509,99.4185,0.013178184499999999
41.379444444444495,41.43436507936508,99.41900000000001,0.013044789000000001
41.3994444444445,41.45436507936509,99.41900000000001,0.0128475773
41.419444444444494,41.474365079365086,99.4195,0.0127401227
41.4394444444445,41.49436507936508,99.4195,0.012655526
41.449444444444495,41.50436507936509,99.4195,0.012725875499999999
41.4694444444445,41.52436507936508,99.42,0.0127072796
41.489444444444494,41.544365079365086,99.42,0.012495059
41.5094444444445,41.56436507936509,99.4205,0.012199198999999999
41.519444444444495,41.57436507936508,99.4205,0.01186307
41.5394444444445,41.59436507936509,99.42099999999999,0.0116999395
41.559444444444495,41.614365079365086,99.42099999999999,0.01164336
41.5794444444445,41.63436507936508,99.42150000000001,0.011546483500000001
41.5994444444445,41.65436507936509,99.42150000000001,0.0114711775
41.6094444444445,41.669365079365086,99.42150000000001,0.0113551635
41.629444444444495,41.68436507936508,99.422,0.011136902999999998
41.6494444444445,41.70436507936509,99.422,0.010879884
41.669444444444494,41.724365079365086,99.4225,0.010666429
41.6894444444445,41.74436507936508,99.4225,0.010434443
41.7094444444445,41.76436507936509,99.4225,0.010142766499999999
41.729444444444496,41.78436507936509,99.423,0.01001655
41.739444444444494,41.79936507936509,99.423,0.0098508965
41.7594444444445,41.81436507936509,99.4235,0.0098079655
41.7794444444445,41.834365079365085,99.4235,0.009726371
41.7994444444445,41.85436507936508,99.4235,0.0094851195
41.8194444444445,41.87436507936509,99.424,0.009265724500000001
41.839444444444496,41.89436507936509,99.424,0.009047595
41.8594444444445,41.91436507936508,99.424,0.00897017
41.879444444444495,41.93436507936508,99.4245,0.009012088500000001
41.8994444444445,41.95436507936509,99.4245,0.008875538
41.919444444444494,41.974365079365086,99.42500000000001,0.008546459999999999
41.9394444444445,41.99436507936508,99.42500000000001,0.008278715
41.9594444444445,42.01436507936509,99.42500000000001,0.00805269
41.979444444444496,42.03436507936509,99.4255,0.00802162
41.9994444444445,42.054365079365084,99.4255,0.008066933
