Time,Temperature,Weight,Deriv. Weight
40.13,39.875,98.75800000000001,-0.762238
40.135000000000005,39.878055555555555,98.7575,-0.7958959999999999
40.135909090909095,39.87906565656566,98.757,-0.8154444999999999
40.136818181818185,39.88007575757575,98.75649999999999,-0.8536855
40.137727272727275,39.88108585858585,98.75550000000001,-0.8519570000000001
40.138636363636365,39.88209595959595,98.75550000000001,-0.8281605
40.139545454545456,39.88310606060605,98.755,-0.798978
40.140454545454546,39.88411616161615,98.75399999999999,-0.776686
40.141363636363636,39.885126262626244,98.75399999999999,-0.7800725
40.142272727272726,39.8857532218739,98.7535,-0.8039324999999999
40.143181818181816,39.88638018112154,98.7525,-0.8409255
40.144090909090906,39.88700714036919,98.752,-0.8690125
40.144999999999996,39.88763409961683,98.752,-0.8667785
40.145909090909086,39.88826105886449,98.751,-0.8549214999999999
40.146818181818176,39.88888801811213,98.7505,-0.8425725
40.147727272727266,39.88951497735978,98.7505,-0.849037
40.148636363636356,39.89014193660742,98.7495,-0.89038
40.149545454545446,39.890768895855075,98.749,-0.9120775000000001
40.15045454545454,39.891395855102715,98.749,-0.9073289999999999
40.15136363636363,39.89202281435037,98.74799999999999,-0.8798615000000001
40.15227272727272,39.89264977359801,98.7475,-0.8349405000000001
40.15318181818181,39.89327673284566,98.7475,-0.8136855000000001
40.1540909090909,39.8939036920933,98.7465,-0.801392
40.15499999999999,39.89453065134096,98.74600000000001,-0.7982279999999999
40.15583333333332,39.89511973180072,98.74600000000001,-0.80575
40.15666666666665,39.895708812260494,98.745,-0.8042024999999999
40.157499999999985,39.896297892720256,98.7445,-0.774186
40.15833333333332,39.89688697318003,98.7445,-0.725098
40.15916666666665,39.89747605363979,98.744,-0.6754245
40.15999999999998,39.89806513409957,98.743,-0.657288
40.160833333333315,39.89865421455933,98.743,-0.6562635
40.16166666666665,39.899243295019104,98.7425,-0.6343840000000001
40.16249999999998,39.899832375478866,98.7425,-0.6224675
40.16333333333331,39.90042145593864,98.74199999999999,-0.5959135
40.164166666666645,39.9010105363984,98.7415,-0.5785065
40.16499999999998,39.90159961685818,98.741,-0.5633955
40.16590909090907,39.90222657610582,98.7405,-0.5204735
40.16681818181816,39.90285353535347,98.7405,-0.4957795
40.16772727272725,39.90351641414135,98.74000000000001,-0.4814495
40.16863636363634,39.90417929292923,98.74000000000001,-0.48833649999999995
40.16954545454543,39.90484217171711,98.73949999999999,-0.49833700000000003
40.17045454545452,39.905505050504985,98.73949999999999,-0.492183
40.17136363636361,39.90616792929286,98.7385,-0.48097049999999997
40.1722727272727,39.90683080808074,98.738,-0.458022
40.17318181818179,39.90749368686862,98.738,-0.428131
40.17409090909088,39.9081565656565,98.7375,-0.38097000000000003
40.17499999999997,39.908819444444376,98.7375,-0.34678
40.1758333333333,39.909444444444375,98.737,-0.3371835
40.176666666666634,39.910069444444375,98.737,-0.3442419
40.17749999999997,39.910694444444374,98.7365,-0.35605205
40.1783333333333,39.91131944444437,98.7365,-0.3461863
40.17916666666663,39.91194444444437,98.73599999999999,-0.318034
40.179999999999964,39.91256944444437,98.73599999999999,-0.27809015
40.1808333333333,39.91319444444437,98.7355,-0.24210915
40.18166666666663,39.91381944444437,98.7355,-0.21415089999999998
40.18249999999996,39.91444444444437,98.735,-0.207831
40.183333333333294,39.91506944444437,98.735,-0.21447349999999998
40.18416666666663,39.91569444444437,98.7345,-0.2118875
40.18499999999996,39.91631944444437,98.7345,-0.184077
40.18599999999996,39.9170277777777,98.7345,-0.1490375
40.186999999999955,39.917736111111026,98.73400000000001,-0.11540449999999997
40.18799999999995,39.91844444444436,98.73400000000001,-0.107516
40.18899999999995,39.919277777777694,98.73349999999999,-0.11517349999999998
40.18999999999995,39.92011111111103,98.73400000000001,-0.11164000000000002
40.190999999999946,39.92094444444436,98.73349999999999,-0.09161699999999995
40.19199999999994,39.92177777777769,98.73349999999999,-0.04191349999999999
40.19299999999994,39.922611111111024,98.733,0.012809000000000015
40.19399999999994,39.92344444444436,98.73349999999999,0.05583249999999995
40.194999999999936,39.92427777777769,98.73349999999999,0.06834999999999997
40.195999999999934,39.92511111111102,98.733,0.06716349999999999
40.19699999999993,39.925944444444355,98.73349999999999,0.05688350000000003
40.19799999999993,39.92677777777769,98.733,0.047676500000000066
40.19899999999993,39.92761111111102,98.733,0.05452650000000003
40.199999999999925,39.92844444444435,98.73349999999999,0.07936249999999995
40.20099999999992,39.929277777777685,98.733,0.11808599999999997
40.20199999999992,39.93011111111102,98.73349999999999,0.1442815
40.20299999999992,39.93094444444435,98.73349999999999,0.1448775
40.203999999999915,39.93194444444435,98.73349999999999,0.132033
40.20499999999991,39.932944444444345,98.73349999999999,0.13000299999999998
40.20624999999991,39.93406944444435,98.73349999999999,0.14654300000000003
40.20749999999991,39.93519444444434,98.73349999999999,0.180962
40.20874999999991,39.93631944444434,98.734,0.21478500000000003
40.20999999999991,39.93744444444434,98.73400000000001,0.231793
40.21124999999991,39.93856944444434,98.73400000000001,0.228026
40.212499999999906,39.939694444444335,98.7345,0.205034
40.213749999999905,39.94081944444433,98.735,0.19109150000000003
40.214999999999904,39.94194444444433,98.7345,0.20002999999999999
40.2162499999999,39.94319444444433,98.735,0.22561849999999997
40.2174999999999,39.94444444444433,98.7355,0.2586665
40.2187499999999,39.94569444444433,98.73599999999999,0.279595
40.2199999999999,39.94694444444433,98.73599999999999,0.27909
40.2212499999999,39.948194444444326,98.73599999999999,0.26621350000000005
40.2224999999999,39.949444444444325,98.7365,0.25176149999999997
40.223749999999896,39.95069444444432,98.737,0.25116799999999995
40.224999999999895,39.95194444444432,98.7375,0.2687585
40.226428571428464,39.953492063491936,98.73750000000001,0.29000869999999995
40.22785714285703,39.95503968253956,98.738,0.30033850000000006
40.2292857142856,39.95658730158718,98.7385,0.29151275
40.23071428571417,39.95813492063479,98.739,0.2731493
40.23214285714274,39.959682539682404,98.73949999999999,0.2594185
40.23357142857131,39.961230158730025,98.74000000000001,0.2625425
40.23499999999988,39.962777777777646,98.7405,0.2847453
40.23699999999988,39.964611111110976,98.741,0.31425276
40.23899999999988,39.966444444444306,98.7415,0.3344985
40.240999999999886,39.968277777777644,98.742,0.3332889
40.24299999999989,39.97011111111098,98.743,0.31114273499999995
40.24499999999989,39.97194444444431,98.74350000000001,0.28929095
40.246666666666556,39.97377777777764,98.744,0.28488775
40.24833333333322,39.97561111111098,98.7445,0.301446215
40.249999999999886,39.977444444444316,98.745,0.32779345
40.25166666666655,39.97927777777765,98.74600000000001,0.34146455
40.25333333333322,39.98111111111098,98.7465,0.33779905000000005
40.25499999999988,39.98319444444431,98.747,0.31941780000000003
40.256999999999884,39.98544444444431,98.748,0.300177
40.25899999999989,39.987694444444315,98.7485,0.29479240000000007
40.26099999999989,39.98994444444431,98.749,0.3025525
40.26299999999989,39.99219444444431,98.75,0.31638835
40.264999999999894,39.99444444444431,98.751,0.3289085
40.2674999999999,39.99694444444431,98.7515,0.332348
40.2699999999999,39.99944444444431,98.7525,0.32449249999999996
40.272499999999894,40.001944444444305,98.753,0.30994
40.27499999999989,40.0044444444443,98.75450000000001,0.29754915000000004
40.27749999999989,40.0069444444443,98.755,0.29578875
40.27999999999989,40.0094444444443,98.756,0.3034704
40.282499999999885,40.01236111111097,98.7565,0.31282199999999993
40.28499999999988,40.015277777777634,98.7575,0.313749
40.28749999999988,40.0181944444443,98.7585,0.30395
40.28999999999988,40.02111111111096,98.7595,0.29058435
40.292499999999876,40.024027777777626,98.76,0.2799051
40.294999999999874,40.02694444444429,98.761,0.27936405000000003
40.29749999999987,40.029861111110954,98.762,0.2874433
40.29999999999987,40.03277777777762,98.763,0.29792250000000003
40.30249999999987,40.03569444444428,98.764,0.3038685
40.304999999999865,40.03861111111095,98.765,0.3010585
40.3083333333332,40.04194444444428,98.76599999999999,0.2888255
40.31166666666653,40.04527777777761,98.767,0.2766121
40.31499999999986,40.048611111110944,98.7675,0.27266330000000005
40.31749999999986,40.05152777777761,98.769,0.278696
40.31999999999986,40.05444444444427,98.77000000000001,0.2878135
40.322499999999856,40.05819444444427,98.7705,0.289589
40.324999999999854,40.06194444444427,98.77199999999999,0.2828825
40.328333333333184,40.0652777777776,98.773,0.2709305
40.331666666666514,40.06861111111093,98.7745,0.2608105
40.334999999999845,40.07194444444426,98.775,0.25854299999999997
40.33833333333318,40.07611111111093,98.77600000000001,0.262478
40.34166666666651,40.080277777777596,98.7775,0.26874149999999997
40.34499999999984,40.084444444444266,98.778,0.2727895
40.34999999999984,40.08944444444427,98.7795,0.27030200000000004
40.35499999999984,40.094444444444264,98.78049999999999,0.263648
40.35833333333317,40.098611111110934,98.78200000000001,0.2561135
40.3616666666665,40.10194444444427,98.783,0.25107999999999997
40.36499999999983,40.1052777777776,98.7835,0.25155150000000004
40.36833333333316,40.10861111111093,98.785,0.25338150000000004
40.37166666666649,40.112777777777595,98.786,0.253483
40.37499999999982,40.11694444444426,98.7875,0.2502965
40.379999999999825,40.12194444444426,98.789,0.2451285
40.38499999999983,40.12694444444426,98.78999999999999,0.239576
40.38833333333316,40.13361111111092,98.79050000000001,0.234443
40.39166666666649,40.13777777777759,98.792,0.2321125
40.39499999999982,40.14194444444426,98.793,0.23190349999999998
40.39999999999982,40.14694444444426,98.7945,0.2328035
40.40499999999982,40.15194444444426,98.7955,0.23147099999999998
40.409999999999826,40.156944444444264,98.797,0.228126
40.41499999999983,40.161944444444266,98.798,0.2223945
40.41999999999983,40.16694444444427,98.7995,0.21768400000000002
40.424999999999834,40.17194444444427,98.8005,0.215551
40.428333333333164,40.17861111111094,98.8015,0.215657
40.431666666666494,40.1827777777776,98.8025,0.21830299999999997
40.434999999999825,40.18694444444427,98.804,0.21908450000000002
40.43999999999983,40.191944444444275,98.805,0.2174185
40.44499999999983,40.19694444444428,98.8065,0.21438400000000002
40.44999999999983,40.20444444444428,98.8075,0.2109725
40.454999999999835,40.20944444444429,98.809,0.2089085
40.45999999999984,40.21444444444428,98.81049999999999,0.2083045
40.46499999999984,40.22194444444429,98.8115,0.20789400000000002
40.46999999999984,40.226944444444285,98.813,0.206702
40.474999999999845,40.23194444444429,98.814,0.20470850000000002
40.48499999999984,40.241944444444286,98.8155,0.2021865
40.489999999999846,40.246944444444296,98.81700000000001,0.1990765
40.49499999999985,40.25194444444429,98.818,0.1951875
40.499999999999844,40.25944444444429,98.8195,0.19089899999999999
40.504999999999846,40.264444444444294,98.82050000000001,0.188504
40.50999999999985,40.2694444444443,98.822,0.187788
40.51499999999985,40.2769444444443,98.82300000000001,0.18799100000000002
40.519999999999854,40.2844444444443,98.8245,0.1886485
40.52499999999986,40.2894444444443,98.826,0.1872915
40.534999999999854,40.29694444444429,98.827,0.18470999999999999
40.53999999999985,40.3044444444443,98.82849999999999,0.18161299999999997
40.54499999999985,40.31194444444429,98.83,0.17870565
40.55499999999985,40.319444444444294,98.831,0.17787665000000003
40.55999999999985,40.324444444444296,98.83250000000001,0.17834364999999996
40.564999999999856,40.331944444444304,98.8335,0.1772045
40.56999999999985,40.3394444444443,98.83500000000001,0.17590885
40.574999999999854,40.3469444444443,98.8365,0.1724104
40.58499999999985,40.356944444444295,98.8375,0.16830784999999998
40.589999999999854,40.3619444444443,98.839,0.16625435
40.59499999999986,40.3669444444443,98.84,0.16446525
40.604999999999855,40.3769444444443,98.8415,0.1650527
40.60999999999986,40.3844444444443,98.843,0.16596814999999998
40.61499999999986,40.3919444444443,98.844,0.16525255
40.62499999999986,40.4019444444443,98.8455,0.16361330000000002
40.63499999999986,40.4119444444443,98.84700000000001,0.1594993
40.63999999999986,40.4169444444443,98.848,0.1543484
40.64499999999986,40.4219444444443,98.8495,0.15139185
40.65499999999986,40.4319444444443,98.85050000000001,0.15031905
40.659999999999854,40.4394444444443,98.852,0.1520319
40.66499999999986,40.4469444444443,98.8535,0.15317150000000002
40.67499999999986,40.456944444444304,98.85499999999999,0.15218105
40.68499999999986,40.4669444444443,98.85650000000001,0.14918589999999998
40.689999999999856,40.4744444444443,98.858,0.14467415
40.69499999999986,40.481944444444295,98.85900000000001,0.14182384999999997
40.70499999999986,40.4919444444443,98.8605,0.1404985
40.71499999999986,40.501944444444305,98.8615,0.14202005
40.72499999999986,40.511944444444296,98.863,0.1440039
40.72999999999986,40.519444444444304,98.8645,0.14371620000000002
40.734999999999864,40.526944444444304,98.8655,0.14055215
40.74499999999987,40.5369444444443,98.86699999999999,0.13531205000000002
40.75499999999987,40.54694444444431,98.86850000000001,0.13166985
40.764999999999866,40.556944444444305,98.869,0.131285
40.77499999999987,40.5669444444443,98.8705,0.1332692
40.77999999999987,40.57444444444431,98.872,0.13452575
40.784999999999876,40.581944444444304,98.87299999999999,0.13376505
40.794999999999874,40.59194444444431,98.8745,0.1304826
40.80499999999987,40.60194444444431,98.876,0.12619675
40.81499999999988,40.611944444444305,98.87700000000001,0.12299625
40.824999999999875,40.626944444444305,98.8785,0.1215083
40.83499999999987,40.63694444444431,98.87950000000001,0.1226045
40.84499999999988,40.64694444444431,98.881,0.1243937
40.854999999999876,40.656944444444306,98.8825,0.1243619
40.864999999999874,40.66694444444431,98.8835,0.1217295
40.86999999999988,40.674444444444305,98.88499999999999,0.11775905
40.87499999999988,40.68194444444431,98.8865,0.11486274999999999
40.884999999999884,40.69694444444431,98.8875,0.1136955
40.89499999999988,40.70694444444431,98.889,0.11399395000000001
40.90499999999988,40.71694444444431,98.88999999999999,0.11472405000000001
40.91499999999988,40.726944444444314,98.89150000000001,0.1151841
40.92499999999988,40.73694444444431,98.893,0.11329275
40.93499999999988,40.75194444444431,98.894,0.10966290000000001
40.94499999999988,40.76194444444431,98.8955,0.10591175
40.954999999999885,40.771944444444316,98.8965,0.10380085
40.96499999999988,40.78194444444431,98.89750000000001,0.10423585
40.97499999999988,40.79194444444431,98.899,0.10493350000000001
40.98499999999988,40.80694444444431,98.9,0.10523075
40.994999999999884,40.81694444444432,98.9015,0.1037615
41.00499999999988,40.82694444444431,98.90299999999999,0.10111039999999999
41.01499999999988,40.84194444444431,98.904,0.0983057
41.024999999999885,40.851944444444314,98.9055,0.09606804999999999
41.03499999999988,40.86194444444431,98.906,0.09661285
41.05499999999988,40.876944444444305,98.9075,0.09864490000000001
41.064999999999884,40.89194444444431,98.90899999999999,0.09988115
41.07499999999988,40.90194444444431,98.91,0.0990624
41.08499999999988,40.91194444444431,98.9115,0.09533720000000001
41.094999999999885,40.92694444444432,98.912,0.09165575000000001
41.10499999999988,40.93694444444431,98.9135,0.0897094
41.11499999999988,40.95194444444431,98.9145,0.08974995
41.12499999999988,40.96194444444431,98.916,0.09067925000000002
41.134999999999884,40.97194444444431,98.9175,0.0907168
41.15499999999988,40.991944444444314,98.918,0.08907985000000002
41.16499999999988,41.001944444444305,98.9195,0.08552570000000001
41.17499999999988,41.01694444444431,98.9205,0.08205535
41.18499999999988,41.02694444444431,98.922,0.08014450000000001
41.19499999999988,41.03694444444431,98.9225,0.0801202
41.204999999999885,41.05194444444432,98.924,0.0814589
41.22499999999988,41.06694444444431,98.92500000000001,0.08287505
41.23499999999988,41.08194444444431,98.9265,0.08288709999999999
41.244999999999884,41.09194444444431,98.92750000000001,0.08079824999999999
41.25499999999988,41.10694444444431,98.9285,0.07756969999999999
41.26499999999988,41.116944444444314,98.92949999999999,0.0744928
41.28499999999988,41.13694444444431,98.9305,0.07336224999999999
41.29499999999988,41.146944444444316,98.9315,0.07364745
41.30499999999988,41.16194444444431,98.93299999999999,0.07383725
41.314999999999884,41.171944444444314,98.9335,0.07374915000000001
41.33499999999988,41.19194444444431,98.935,0.07295065
41.344999999999885,41.20194444444431,98.936,0.07142555
41.35499999999988,41.21694444444431,98.93700000000001,0.07019824999999999
41.37499999999988,41.23194444444431,98.938,0.0693591
41.384999999999884,41.24694444444431,98.939,0.06948075000000001
41.39499999999988,41.26194444444431,98.94,0.0702537
41.40499999999988,41.271944444444316,98.94149999999999,0.0700473
41.42499999999988,41.29194444444431,98.94200000000001,0.0687461
41.43499999999988,41.30194444444431,98.9435,0.0664352
41.44499999999988,41.31694444444431,98.944,0.06425805000000001
41.46499999999988,41.33694444444431,98.9455,0.0632276
41.47499999999988,41.34694444444431,98.946,0.0634508
41.494999999999884,41.366944444444314,98.94749999999999,0.0638189
41.50499999999988,41.381944444444315,98.9485,0.0638132
41.51499999999988,41.391944444444306,98.9495,0.06303395
41.53499999999988,41.411944444444316,98.9505,0.0616318
41.54499999999988,41.42694444444431,98.9515,0.060682849999999997
41.55499999999988,41.43694444444431,98.9525,0.059804750000000004
41.57499999999988,41.45694444444431,98.953,0.059520149999999994
41.58499999999988,41.47194444444431,98.9545,0.059722849999999994
41.60499999999988,41.48694444444431,98.955,0.05977025
41.61499999999988,41.50194444444431,98.9565,0.059195250000000005
41.634999999999884,41.521944444444316,98.957,0.05789854999999999
41.64499999999988,41.536944444444316,98.95849999999999,0.056297849999999997
41.66499999999988,41.55194444444431,98.959,0.0553547
41.67499999999988,41.56694444444432,98.95949999999999,0.0552069
41.69499999999988,41.58694444444431,98.961,0.05516120000000001
41.704999999999885,41.601944444444314,98.9615,0.0546297
41.71499999999988,41.61194444444431,98.963,0.05365835000000001
41.73499999999988,41.631944444444315,98.96350000000001,0.052113450000000006
41.75499999999988,41.65194444444431,98.965,0.050274650000000004
41.76499999999988,41.66694444444431,98.96549999999999,0.04912475
41.78499999999988,41.68694444444431,98.966,0.0481544
41.79499999999988,41.69694444444431,98.9675,0.04775995
41.814999999999884,41.71694444444431,98.96799999999999,0.04724690000000001
41.82499999999988,41.73194444444431,98.9685,0.04681995
41.844999999999885,41.75194444444431,98.96950000000001,0.046597
41.85499999999988,41.76694444444431,98.9705,0.0461168
41.87499999999988,41.78694444444431,98.971,0.0453903
41.884999999999884,41.796944444444314,98.972,0.044753
41.90499999999988,41.81694444444431,98.973,0.04461295
41.92499999999988,41.83694444444431,98.9735,0.044831449999999995
41.93499999999988,41.851944444444314,98.9745,0.04473855
41.954999999999885,41.87194444444431,98.9755,0.0441713
41.97499999999988,41.891944444444306,98.976,0.0434074
41.98499999999988,41.906944444444306,98.977,0.04241865
42.00499999999988,41.92694444444432,98.97749999999999,0.0417975
42.01499999999988,41.94194444444431,98.9785,0.0410471
42.03499999999988,41.96194444444431,98.9795,0.0407417
42.05499999999988,41.98194444444431,98.97999999999999,0.0403862
42.064999999999884,41.99694444444431,98.981,0.0398317
42.08499999999988,42.016944444444306,98.9815,0.039164199999999996
42.10499999999988,42.036944444444316,98.9825,0.03790055
42.11499999999988,42.05194444444431,98.983,0.0370361
42.134999999999884,42.07194444444431,98.98349999999999,0.0363135
42.15499999999988,42.09194444444431,98.98400000000001,0.0357385
42.17499999999988,42.11194444444431,98.9855,0.0354295
